42725,56607
42731,56617
42744,56612
42728,56611
42735,56625
42726,56625
42719,56627
42729,56618
42721,56612
42746,56616
42725,56613
42727,56610
42726,56601
42721,56611
42734,56615
42714,56601
42727,56613
42732,56610
42731,56610
42719,56602
42722,56620
42746,56609
42712,56632
42738,56609
42722,56618
42723,56637
42737,56629
42713,56628
42720,56636
42743,56633
42709,56622
42732,56620
42724,56639
42726,56633
42719,56635
42722,56637
42718,56617
42720,56629
42733,56630
42736,56622
42730,56640
42729,56651
42734,56643
42709,56644
42725,56642
42715,56648
42710,56622
42712,56654
42727,56636
42725,56647
42727,56627
42728,56639
42718,56654
42727,56657
42724,56641
42729,56653
42724,56650
42740,56655
42729,56658
42741,56667
42721,56659
42739,56675
42715,56660
42716,56668
42733,56663
42725,56670
42735,56665
42728,56677
42726,56681
42740,56667
42727,56657
42732,56680
42718,56688
42751,56674
42719,56681
42735,56683
42734,56687
42734,56686
42740,56690
42725,56690
42727,56689
42723,56695
42733,56696
42738,56696
42730,56701
42740,56688
42727,56698
42731,56691
42735,56707
42726,56693
42737,56700
42737,56697
42736,56684
42730,56670
42730,56661
42715,56634
42699,56621
42701,56620
42718,56601
42697,56625
42687,56623
42707,56616
42719,56615
42701,56616
42717,56631
42713,56632
42707,56638
42717,56641
42714,56658
42716,56645
42718,56630
42711,56634
42704,56629
42706,56631
42706,56634
42712,56632
42697,56627
42701,56627
42701,56619
42705,56634
42704,56636
42710,56629
42695,56638
42703,56630
42708,56642
42706,56640
42714,56635
42705,56656
42726,56652
42715,56645
42706,56661
42701,56657
42712,56640
42716,56663
42700,56639
42697,56647
42708,56633
42698,56660
42703,56648
42710,56643
42695,56644
42693,56646
42703,56653
42714,56654
42702,56659
42704,56652
42700,56670
42709,56657
42691,56659
42714,56690
42708,56671
42713,56697
42709,56686
42702,56673
42712,56679
42700,56665
42711,56659
42713,56674
42717,56675
42724,56673
42707,56684
42719,56677
42712,56668
42716,56670
42711,56680
42709,56699
42701,56677
42707,56678
42708,56680
42703,56705
42707,56711
42698,56663
42705,56647
42705,56675
42715,56690
42723,56691
42707,56699
42708,56692
42721,56704
42712,56723
42715,56699
42732,56711
42732,56702
42715,56706
42697,56719
42731,56721
42710,56724
42720,56714
42722,56727
42726,56727
42726,56711
42719,56731
42738,56728
42724,56716
42735,56723
42731,56711
42723,56735
42726,56731
42729,56742
42722,56727
42718,56748
42729,56744
42725,56750
42730,56743
42726,56736
42718,56751
42729,56743
42724,56736
42713,56740
42736,56735
42720,56726
42708,56716
42712,56699
42703,56679
42705,56665
42688,56667
42691,56659
42704,56635
42679,56652
42689,56645
42684,56654
42716,56652
42705,56656
42705,56650
42718,56663
42687,56681
42702,56677
42689,56679
42702,56678
42689,56675
42699,56651
42694,56668
42683,56665
42684,56662
42689,56656
42689,56641
42685,56653
42692,56642
42679,56658
42693,56647
42695,56646
42696,56660
42686,56671
42711,56664
42697,56671
42701,56667
42707,56676
42689,56673
42693,56670
42709,56654
42700,56669
42691,56679
42687,56667
42685,56655
42698,56662
42691,56672
42690,56649
42693,56661
42682,56660
42672,56671
42697,56677
42690,56663
42685,56670
42701,56666
42705,56659
42682,56672
42698,56691
42689,56676
42689,56673
42671,56667
42689,56679
42693,56681
42698,56680
42687,56687
42682,56681
42706,56676
42686,56692
42702,56686
42688,56680
42705,56664
42683,56679
42690,56690
42683,56678
42701,56688
42697,56691
42691,56686
42709,56691
42691,56689
42699,56687
42685,56686
42687,56689
42691,56699
42684,56695
42705,56688
42683,56691
42696,56697
42682,56694
42678,56707
42686,56696
42700,56701
42686,56707
42694,56701
42693,56701
42691,56724
42703,56690
42685,56719
42709,56702
42708,56702
42693,56714
42684,56708
42693,56712
42701,56721
42704,56728
42699,56722
42703,56722
42718,56717
42708,56727
42705,56721
42704,56728
42688,56727
42680,56735
42710,56741
42704,56731
42700,56740
42711,56738
42697,56737
42691,56739
42682,56755
42697,56751
42702,56738
42699,56722
42688,56717
42683,56700
42676,56678
42670,56663
42680,56675
42648,56630
42662,56633
42674,56630
42664,56638
42661,56645
42666,56659
42667,56658
42674,56657
42674,56648
42664,56645
42659,56652
42666,56657
42670,56676
42662,56650
42659,56643
42663,56655
42673,56637
42668,56642
42661,56650
42657,56631
42657,56642
42649,56624
42659,56636
42658,56624
42668,56630
42665,56634
42649,56639
42653,56649
42651,56630
42664,56649
42663,56651
42652,56641
42659,56639
42657,56655
42643,56633
42660,56631
42657,56628
42652,56626
42645,56631
42656,56618
42633,56641
42655,56632
42662,56619
42650,56630
42647,56623
42656,56632
42667,56637
42656,56629
42657,56619
42651,56634
42645,56632
42655,56627
42646,56637
42643,56640
42659,56620
42646,56636
42649,56634
42655,56623
42649,56637
42639,56639
42648,56671
42645,56637
42660,56629
42658,56628
42642,56651
42649,56634
42653,56642
42635,56635
42652,56636
42649,56627
42667,56657
42661,56650
42665,56651
42657,56640
42638,56638
42646,56665
42653,56680
42642,56671
42628,56627
42654,56636
42645,56629
42651,56621
42642,56636
42650,56654
42656,56676
42640,56636
42660,56655
42653,56649
42669,56660
42647,56658
42657,56656
42624,56657
42632,56662
42627,56671
42659,56650
42640,56661
42649,56663
42652,56680
42663,56676
42642,56658
42652,56659
42645,56667
42657,56670
42652,56659
42650,56656
42629,56646
42633,56636
42632,56609
42636,56609
42624,56597
42614,56577
42621,56585
42602,56579
42617,56580
42613,56582
42597,56569
42624,56583
42621,56573
42627,56579
42616,56583
42634,56593
42618,56589
42611,56585
42633,56570
42608,56565
42605,56560
42622,56571
42602,56564
42607,56570
42606,56547
42611,56569
42605,56554
42614,56556
42614,56545
42606,56548
42605,56568
42617,56565
42613,56568
42607,56572
42605,56568
42621,56571
42608,56563
42610,56561
42608,56573
42594,56561
42608,56560
42595,56550
42601,56543
42603,56549
42593,56568
42595,56548
42604,56553
42586,56561
42590,56556
42602,56539
42599,56557
42593,56554
42603,56563
42610,56556
42602,56552
42601,56568
42589,56568
42598,56564
42607,56567
42599,56567
42608,56583
42599,56567
42590,56574
42596,56573
42617,56579
42599,56571
42605,56566
42593,56574
42595,56549
42610,56576
42596,56572
42600,56586
42615,56588
42616,56557
42608,56558
42603,56567
42602,56576
42599,56580
42600,56566
42616,56576
42591,56578
42608,56572
42617,56584
42601,56583
42593,56589
42606,56584
42601,56589
42606,56586
42610,56595
42606,56604
42608,56594
42598,56575
42619,56593
42605,56598
42614,56608
42615,56601
42604,56601
42620,56598
42603,56605
42604,56583
42613,56616
42604,56621
42606,56610
42616,56611
42614,56604
42612,56621
42618,56623
42614,56614
42618,56622
42611,56620
42598,56614
42606,56623
42591,56598
42590,56592
42589,56567
42583,56572
42572,56543
42597,56526
42574,56523
42569,56521
42580,56506
42579,56523
42580,56524
42565,56521
42581,56522
42589,56532
42572,56546
42583,56537
42570,56546
42573,56550
42573,56520
42577,56535
42562,56517
42578,56507
42574,56509
42571,56508
42561,56507
42572,56500
42561,56505
42560,56519
42571,56500
42562,56494
42566,56513
42576,56512
42562,56518
42565,56517
42569,56515
42576,56525
42562,56508
42577,56515
42573,56522
42574,56524
42563,56512
42559,56515
42564,56526
42573,56510
42552,56526
42561,56519
42563,56516
42566,56507
42571,56516
42574,56493
42567,56521
42568,56521
42563,56517
42564,56515
42565,56509
42574,56518
42575,56527
42576,56522
42569,56518
42584,56512
42575,56520
42576,56525
42571,56528
42576,56522
42570,56513
42573,56525
42556,56531
42562,56533
42555,56526
42575,56544
42565,56523
42548,56539
42582,56525
42568,56539
42577,56537
42564,56538
42551,56520
42559,56538
42566,56542
42578,56549
42573,56543
42562,56531
42563,56542
42574,56538
42565,56541
42575,56553
42565,56549
42579,56545
42571,56577
42588,56566
42575,56538
42579,56558
42583,56553
42584,56552
42579,56553
42562,56567
42571,56575
42581,56564
42574,56571
42578,56586
42583,56559
42583,56559
42587,56573
42551,56579
42579,56571
42588,56585
42586,56599
42590,56590
42581,56558
42571,56559
42578,56569
42589,56588
42574,56585
42584,56586
42589,56601
42575,56587
42591,56606
42583,56606
42602,56609
42584,56597
42550,56603
42588,56566
42598,56593
42572,56581
42565,56558
42564,56556
42557,56538
42563,56548
42556,56506
42556,56524
42546,56506
42559,56521
42579,56525
42563,56499
42568,56513
42560,56512
42562,56509
42559,56531
42557,56536
42564,56530
42559,56530
42569,56524
42557,56522
42553,56534
42558,56510
42560,56515
42562,56520
42564,56529
42549,56516
42554,56516
42550,56523
42563,56530
42572,56518
42560,56512
42538,56530
42543,56524
42544,56516
42568,56518
42552,56541
42558,56526
42551,56514
42563,56520
42547,56512
42562,56526
42542,56522
42543,56507
42550,56516
42556,56511
42553,56516
42559,56514
42547,56505
42560,56504
42559,56507
42553,56520
42546,56510
42553,56527
42563,56523
42555,56542
42558,56537
42556,56534
42567,56517
42569,56531
42569,56524
42564,56540
42571,56532
42552,56534
42541,56547
42564,56541
42559,56540
42554,56535
42558,56531
42556,56534
42569,56545
42557,56529
42563,56544
42562,56555
42575,56543
42560,56553
42561,56542
42567,56537
42556,56560
42556,56543
42563,56534
42580,56552
42573,56569
42548,56580
42561,56559
42564,56584
42567,56574
42568,56570
42564,56554
42568,56580
42569,56571
42567,56571
42576,56574
42580,56582
42572,56563
42575,56573
42567,56573
42580,56570
42572,56576
42560,56577
42572,56606
42582,56579
42586,56589
42576,56594
42585,56595
42573,56601
42584,56607
42581,56590
42563,56597
42571,56600
42585,56610
42576,56601
42578,56603
42588,56603
42605,56613
42576,56629
42579,56616
42593,56627
42584,56607
42573,56613
42563,56618
42563,56576
42565,56580
42563,56559
42564,56544
42577,56532
42572,56535
42552,56543
42551,56556
42570,56525
42555,56543
42567,56539
42560,56544
42571,56544
42578,56556
42569,56550
42570,56553
42571,56549
42563,56545
42572,56543
42549,56548
42548,56539
42559,56545
42554,56520
42548,56535
42552,56533
42544,56526
42564,56530
42558,56528
42560,56537
42562,56546
42566,56530
42570,56548
42560,56518
42571,56552
42579,56560
42561,56543
42555,56545
42554,56550
42545,56542
42560,56550
42558,56539
42567,56543
42562,56541
42543,56534
42565,56542
42553,56534
42575,56555
42568,56554
42560,56548
42549,56552
42564,56539
42574,56551
42555,56548
42567,56550
42563,56560
42573,56556
42559,56562
42556,56550
42557,56567
42564,56566
42567,56571
42547,56555
42574,56554
42559,56561
42555,56572
42565,56555
42555,56574
42569,56576
42575,56574
42580,56575
42559,56577
42562,56572
42579,56578
42554,56571
42569,56589
42556,56581
42573,56594
42557,56586
42560,56584
42569,56582
42568,56586
42559,56599
42578,56604
42570,56587
42570,56607
42567,56589
42571,56595
42576,56606
42578,56596
42588,56617
42587,56623
42579,56620
42581,56600
42580,56620
42580,56626
42573,56589
42575,56623
42588,56617
42581,56616
42581,56614
42584,56613
42584,56619
42584,56630
42587,56623
42592,56636
42572,56624
42572,56642
42595,56642
42579,56659
42580,56658
42579,56632
42592,56609
42584,56633
42602,56646
42603,56651
42589,56646
42593,56658
42599,56654
42585,56658
42595,56666
42638,56670
42616,56673
42582,56671
42551,56674
42607,56684
42585,56676
42592,56686
42584,56668
42587,56674
42592,56678
42582,56652
42592,56638
42585,56617
42585,56624
42585,56608
42576,56617
42572,56593
42586,56598
42572,56610
42587,56592
42571,56598
42578,56599
42587,56600
42572,56607
42583,56615
42587,56621
42581,56613
42592,56618
42587,56611
42577,56623
42585,56613
42567,56611
42572,56622
42591,56605
42579,56618
42589,56603
42576,56603
42579,56599
42569,56601
42586,56607
42563,56600
42584,56637
42566,56622
42581,56618
42595,56622
42576,56618
42571,56631
42585,56608
42580,56622
42585,56617
42581,56618
42577,56625
42580,56624
42590,56623
42571,56627
42588,56621
42584,56619
42592,56635
42568,56613
42596,56616
42581,56623
42588,56631
42599,56624
42578,56620
42585,56628
42597,56627
42598,56617
42595,56649
42585,56627
42591,56642
42586,56632
42599,56639
42592,56631
42586,56644
42604,56642
42606,56638
42599,56660
42599,56636
42593,56656
42602,56655
42598,56658
42591,56639
42585,56654
42599,56659
42603,56660
42589,56664
42580,56668
42602,56656
42607,56656
42589,56661
42589,56650
42587,56657
42599,56676
42598,56668
42588,56679
42586,56659
42594,56679
42584,56682
42602,56670
42606,56671
42595,56678
42586,56676
42591,56682
42593,56684
42603,56694
42587,56673
42597,56675
42599,56689
42602,56694
42610,56675
42594,56676
42600,56688
42606,56686
42613,56705
42603,56713
42613,56698
42601,56706
42615,56699
42618,56701
42606,56711
42619,56708
42599,56697
42609,56722
42612,56694
42606,56705
42610,56696
42621,56717
42609,56726
42598,56709
42601,56704
42607,56727
42611,56717
42608,56689
42609,56679
42598,56667
42584,56655
42572,56639
42598,56652
42584,56631
42589,56628
42591,56643
42587,56637
42574,56645
42593,56637
42586,56634
42601,56640
42597,56637
42574,56662
42586,56644
42576,56644
42581,56648
42599,56657
42582,56645
42598,56637
42600,56648
42595,56626
42587,56637
42587,56642
42572,56632
42571,56626
42581,56632
42599,56626
42584,56624
42593,56645
42578,56635
42593,56657
42584,56645
42578,56644
42585,56645
42589,56649
42584,56640
42578,56638
42580,56644
42574,56643
42583,56636
42565,56619
42577,56644
42579,56632
42584,56642
42594,56635
42580,56634
42566,56653
42559,56640
42578,56639
42575,56644
42589,56643
42579,56652
42590,56631
42580,56647
42574,56654
42591,56641
42581,56661
42587,56649
42593,56647
42582,56658
42610,56645
42575,56642
42571,56663
42591,56662
42577,56648
42583,56658
42584,56650
42580,56660
42578,56656
42584,56652
42583,56659
42575,56659
42580,56675
42587,56662
42578,56673
42594,56648
42600,56681
42568,56670
42588,56656
42576,56682
42592,56691
42571,56695
42583,56678
42590,56672
42581,56667
42599,56680
42591,56664
42587,56682
42593,56671
42590,56693
42596,56685
42587,56688
42579,56683
42595,56683
42584,56694
42581,56692
42594,56685
42596,56708
42595,56717
42585,56728
42593,56677
42611,56668
42589,56697
42594,56708
42599,56712
42596,56709
42609,56710
42596,56708
42589,56711
42591,56710
42615,56706
42591,56713
42571,56715
42577,56714
42587,56706
42584,56707
42592,56691
42587,56690
42572,56652
42572,56638
42554,56633
42564,56619
42552,56610
42566,56617
42560,56616
42555,56611
42556,56612
42549,56605
42549,56616
42564,56606
42557,56627
42546,56608
42569,56619
42558,56614
42563,56624
42552,56615
42552,56605
42549,56601
42558,56590
42531,56598
42548,56585
42539,56568
42553,56587
42549,56584
42553,56562
42534,56574
42560,56580
42547,56594
42536,56572
42533,56582
42552,56586
42540,56577
42552,56569
42554,56591
42540,56575
42544,56573
42537,56582
42526,56575
42539,56561
42528,56588
42528,56559
42535,56564
42540,56565
42531,56567
42532,56560
42522,56579
42535,56554
42531,56580
42539,56560
42523,56560
42537,56560
42528,56565
42520,56553
42519,56562
42523,56556
42520,56561
42518,56571
42532,56556
42529,56565
42527,56570
42524,56565
42529,56571
42543,56570
42523,56558
42531,56564
42510,56572
42532,56574
42529,56563
42521,56560
42530,56561
42518,56563
42513,56564
42516,56573
42534,56564
42519,56588
42526,56568
42516,56572
42519,56573
42526,56576
42518,56580
42522,56569
42524,56570
42511,56562
42515,56580
42523,56576
42517,56570
42514,56576
42521,56576
42522,56583
42526,56604
42530,56585
42534,56581
42528,56586
42521,56579
42531,56595
42532,56585
42521,56595
42517,56604
42529,56583
42523,56603
42529,56593
42524,56598
42528,56598
42525,56607
42524,56597
42526,56596
42518,56612
42528,56598
42511,56606
42533,56599
42536,56617
42521,56605
42524,56628
42535,56619
42521,56593
42515,56615
42526,56613
42525,56617
42524,56628
42533,56619
42529,56631
42532,56611
42524,56596
42517,56589
42516,56569
42513,56538
42494,56539
42498,56529
42502,56505
42492,56506
42483,56503
42498,56495
42489,56485
42478,56502
42487,56490
42487,56486
42487,56498
42481,56498
42490,56491
42497,56482
42484,56477
42476,56471
42481,56481
42461,56476
42467,56462
42485,56467
42473,56465
42473,56442
42460,56473
42460,56454
42465,56438
42462,56448
42465,56440
42457,56463
42478,56448
42461,56452
42468,56453
42466,56450
42465,56457
42465,56452
42460,56450
42469,56447
42470,56426
42457,56428
42468,56433
42457,56436
42458,56435
42469,56432
42463,56414
42446,56429
42449,56424
42458,56428
42444,56419
42459,56416
42460,56411
42456,56427
42468,56416
42449,56437
42451,56434
42457,56420
42461,56425
42450,56423
42463,56426
42447,56425
42449,56424
42468,56428
42450,56414
42448,56429
42464,56425
42447,56428
42446,56428
42454,56422
42457,56416
42463,56410
42457,56431
42444,56424
42444,56438
42451,56432
42440,56429
42448,56420
42454,56440
42447,56425
42442,56421
42458,56439
42457,56438
42455,56455
42458,56427
42449,56440
42443,56433
42451,56443
42447,56433
42447,56440
42462,56441
42448,56414
42452,56431
42453,56439
42447,56429
42466,56443
42457,56445
42467,56446
42464,56425
42461,56441
42445,56469
42445,56466
42449,56442
42453,56426
42476,56422
42462,56440
42466,56454
42458,56445
42468,56440
42460,56451
42464,56451
42456,56470
42468,56450
42480,56449
42445,56439
42423,56426
42424,56403
42436,56375
42430,56365
42421,56344
42422,56348
42407,56333
42428,56322
42426,56310
42417,56323
42406,56324
42413,56329
42410,56312
42420,56310
42420,56307
42407,56295
42405,56323
42393,56300
42402,56298
42412,56297
42402,56285
42404,56283
42422,56274
42390,56268
42395,56281
42400,56270
42396,56268
42399,56255
42409,56265
42401,56266
42388,56261
42402,56269
42394,56264
42399,56252
42394,56255
42401,56272
42392,56261
42402,56251
42393,56258
42385,56261
42396,56245
42395,56241
42404,56253
42389,56237
42396,56218
42394,56243
42385,56235
42375,56239
42397,56215
42380,56233
42389,56246
42380,56229
42377,56219
42386,56235
42389,56226
42386,56219
42380,56224
42401,56224
42394,56225
42387,56237
42388,56235
42403,56251
42381,56241
42383,56254
42391,56245
42389,56229
42408,56240
42399,56237
42387,56230
42405,56218
42377,56258
42393,56232
42392,56241
42387,56246
42378,56245
42405,56233
42409,56244
42391,56240
42390,56238
42392,56239
42400,56248
42392,56228
42402,56238
42384,56249
42406,56252
42404,56250
42400,56242
42393,56258
42401,56244
42386,56264
42400,56255
42387,56244
42397,56245
42392,56258
42407,56249
42412,56257
42408,56265
42402,56258
42398,56257
42401,56257
42396,56272
42400,56263
42395,56270
42399,56266
42424,56270
42398,56272
42419,56269
42401,56276
42414,56278
42409,56269
42405,56280
42418,56284
42413,56275
42411,56274
42412,56294
42406,56280
42437,56285
42420,56285
42435,56284
42409,56298
42423,56277
42416,56285
42406,56259
42403,56240
42385,56227
42380,56200
42368,56198
42373,56181
42373,56148
42368,56155
42367,56151
42354,56135
42382,56143
42361,56127
42369,56130
42379,56135
42369,56139
42373,56146
42353,56145
42367,56122
42366,56130
42367,56127
42378,56127
42363,56103
42376,56110
42355,56091
42353,56087
42358,56085
42336,56088
42357,56094
42350,56073
42358,56091
42343,56090
42359,56065
42357,56074
42355,56068
42345,56073
42363,56079
42355,56088
42340,56076
42356,56061
42350,56064
42352,56058
42359,56066
42366,56062
42345,56079
42348,56070
42347,56054
42336,56062
42344,56071
42341,56049
42341,56056
42355,56059
42351,56052
42355,56053
42353,56070
42347,56052
42350,56054
42358,56062
42352,56058
42355,56045
42359,56049
42344,56056
42360,56057
42353,56061
42349,56049
42365,56056
42360,56061
42357,56074
42338,56063
42359,56050
42369,56051
42359,56074
42348,56058
42357,56070
42364,56072
42359,56068
42364,56060
42364,56071
42355,56070
42358,56065
42362,56080
42372,56074
42369,56063
42361,56067
42369,56075
42375,56068
42363,56086
42348,56080
42379,56085
42379,56082
42372,56076
42380,56101
42367,56075
42372,56084
42377,56090
42378,56086
42374,56086
42374,56088
42382,56111
42384,56095
42390,56103
42370,56100
42389,56099
42376,56113
42387,56101
42385,56108
42368,56114
42382,56129
42394,56136
42379,56108
42392,56081
42377,56123
42394,56126
42397,56136
42397,56127
42403,56131
42399,56126
42397,56139
42411,56135
42415,56139
42421,56144
42377,56113
42371,56098
42363,56076
42353,56045
42371,56042
42361,56032
42364,56019
42362,55998
42350,55992
42340,55992
42348,55983
42347,55989
42342,55978
42336,55993
42356,55981
42340,55995
42357,55983
42347,55986
42344,55989
42345,55970
42352,55980
42354,55978
42340,55969
42349,55968
42334,55976
42341,55936
42332,55943
42339,55967
42329,55953
42349,55950
42336,55962
42345,55965
42349,55953
42344,55957
42349,55946
42335,55945
42357,55948
42335,55962
42331,55952
42361,55938
42344,55936
42341,55936
42340,55940
42334,55925
42336,55929
42327,55937
42344,55913
42332,55939
42341,55926
42324,55928
42334,55928
42343,55937
42346,55924
42337,55929
42355,55931
42349,55921
42343,55928
42362,55936
42349,55932
42336,55934
42343,55925
42356,55937
42354,55938
42348,55936
42342,55936
42358,55928
42333,55920
42337,55942
42350,55931
42352,55938
42355,55934
42344,55928
42349,55935
42349,55942
42364,55942
42349,55943
42345,55949
42357,55958
42344,55954
42352,55948
42370,55954
42358,55944
42362,55946
42363,55944
42364,55968
42368,55944
42358,55950
42375,55952
42356,55949
42358,55949
42365,55954
42360,55942
42371,55962
42367,55953
42368,55952
42361,55938
42353,55923
42342,55906
42330,55887
42342,55865
42329,55857
42318,55848
42311,55839
42301,55830
42310,55801
42325,55817
42306,55811
42323,55816
42320,55798
42312,55802
42313,55802
42305,55799
42304,55793
42311,55794
42299,55772
42301,55778
42297,55755
42285,55764
42292,55750
42286,55747
42300,55733
42302,55736
42295,55740
42308,55727
42299,55733
42290,55734
42294,55736
42292,55729
42294,55733
42295,55734
42281,55725
42297,55737
42289,55720
42301,55721
42287,55713
42303,55705
42301,55723
42291,55705
42277,55694
42271,55699
42277,55701
42290,55696
42302,55692
42283,55700
42297,55692
42273,55685
42290,55686
42274,55704
42284,55683
42282,55681
42288,55690
42279,55696
42294,55681
42283,55715
42288,55695
42286,55671
42287,55688
42295,55700
42286,55700
42284,55700
42280,55686
42283,55697
42291,55688
42289,55677
42293,55699
42284,55675
42288,55688
42294,55702
42281,55699
42274,55692
42295,55711
42285,55701
42282,55691
42292,55708
42291,55696
42284,55702
42288,55708
42287,55693
42297,55711
42301,55690
42281,55702
42293,55703
42286,55703
42293,55708
42289,55721
42296,55718
42287,55701
42302,55713
42300,55723
42292,55708
42303,55709
42290,55730
42306,55727
42310,55733
42301,55724
42307,55728
42312,55728
42308,55735
42301,55744
42317,55733
42306,55744
42304,55743
42300,55731
42311,55749
42314,55763
42306,55748
42313,55756
42319,55757
42308,55756
42315,55758
42324,55761
42306,55765
42323,55758
42319,55767
42320,55756
42328,55762
42316,55766
42303,55780
42288,55753
42297,55742
42298,55719
42292,55708
42271,55673
42275,55667
42286,55663
42266,55630
42290,55653
42270,55646
42262,55635
42270,55641
42274,55653
42271,55655
42252,55641
42279,55613
42273,55602
42275,55618
42266,55628
42273,55618
42263,55627
42260,55623
42237,55603
42245,55603
42276,55608
42284,55580
42267,55598
42247,55600
42220,55606
42222,55602
42244,55612
42238,55591
42255,55603
42251,55611
42266,55609
42259,55599
42259,55599
42249,55590
42258,55600
42265,55593
42258,55593
42249,55585
42254,55591
42243,55584
42251,55586
42238,55598
42251,55594
42244,55591
42265,55580
42242,55585
42262,55589
42250,55570
42254,55584
42259,55589
42261,55587
42262,55600
42272,55596
42270,55603
42262,55597
42259,55605
42261,55600
42261,55617
42263,55602
42268,55608
42267,55608
42255,55592
42259,55626
42264,55599
42266,55607
42257,55607
42256,55613
42269,55620
42270,55609
42256,55621
42254,55634
42263,55631
42275,55640
42265,55638
42266,55622
42265,55640
42267,55641
42268,55640
42267,55646
42266,55638
42272,55646
42262,55653
42265,55660
42277,55663
42263,55663
42266,55657
42283,55653
42280,55668
42280,55675
42272,55683
42275,55660
42285,55674
42271,55687
42283,55685
42295,55691
42303,55694
42290,55699
42286,55691
42271,55685
42290,55692
42280,55699
42302,55714
42303,55711
42288,55719
42297,55715
42313,55730
42308,55729
42303,55729
42300,55728
42299,55738
42306,55735
42301,55768
42292,55746
42315,55746
42306,55753
42309,55746
42299,55728
42293,55727
42290,55724
42274,55689
42276,55680
42299,55655
42278,55666
42292,55686
42286,55672
42276,55679
42270,55675
42280,55682
42290,55675
42285,55689
42296,55704
42291,55690
42299,55701
42299,55703
42303,55696
42284,55697
42297,55696
42289,55698
42292,55701
42298,55682
42279,55691
42300,55689
42289,55705
42289,55690
42288,55689
42303,55704
42297,55707
42291,55717
42300,55698
42304,55712
42294,55718
42298,55726
42304,55718
42303,55723
42311,55719
42306,55728
42296,55721
42307,55715
42310,55719
42301,55720
42294,55723
42299,55723
42316,55728
42305,55747
42308,55740
42316,55741
42304,55752
42313,55736
42291,55747
42311,55750
42322,55740
42298,55755
42309,55747
42304,55762
42310,55752
42323,55769
42314,55775
42312,55777
42341,55780
42311,55777
42335,55778
42308,55792
42318,55786
42326,55795
42323,55780
42332,55788
42333,55796
42326,55814
42339,55808
42328,55814
42342,55801
42331,55817
42342,55816
42331,55817
42337,55829
42329,55814
42328,55830
42328,55823
42333,55834
42350,55829
42348,55838
42340,55847
42354,55838
42347,55852
42334,55864
42341,55853
42337,55856
42357,55869
42333,55844
42347,55864
42345,55862
42350,55876
42357,55885
42344,55863
42350,55882
42355,55891
42355,55879
42355,55878
42351,55891
42345,55889
42344,55879
42348,55881
42349,55868
42346,55858
42331,55861
42337,55834
42332,55829
42339,55816
42329,55837
42329,55825
42324,55834
42326,55839
42335,55858
42338,55851
42352,55857
42330,55858
42348,55870
42338,55854
42332,55873
42321,55838
42334,55852
42334,55852
42336,55865
42339,55862
42339,55856
42344,55853
42334,55865
42329,55858
42346,55880
42356,55858
42352,55879
42344,55879
42345,55901
42343,55884
42334,55915
42340,55905
42342,55880
42336,55863
42335,55904
42352,55881
42342,55886
42348,55900
42339,55903
42348,55891
42345,55891
42354,55902
42360,55911
42365,55899
42357,55911
42342,55913
42309,55896
42325,55914
42349,55926
42367,55918
42353,55925
42369,55921
42348,55923
42359,55937
42351,55938
42364,55934
42365,55946
42360,55944
42358,55941
42355,55937
42366,55953
42376,55962
42378,55959
42366,55956
42364,55956
42367,55968
42375,55963
42375,55965
42362,55978
42364,55974
42364,55967
42358,55973
42382,55972
42375,55988
42365,55980
42383,55991
42377,55971
42384,55982
42362,55988
42366,55982
42379,55998
42379,56001
42377,56004
42361,55994
42371,55995
42379,56001
42392,56013
42387,56027
42385,56011
42382,56022
42385,56032
42374,56016
42381,56020
42387,56027
42393,56029
42386,56032
42383,56036
42378,56038
42393,56043
42383,56042
42401,56048
42393,56051
42395,56041
42405,56053
42384,56052
42392,56048
42385,56067
42405,56080
42405,56070
42405,56065
42403,56081
42403,56071
42408,56071
42409,56080
42413,56074
42401,56097
42404,56099
42403,56088
42402,56077
42408,56101
42409,56111
42412,56089
42404,56091
42401,56111
42418,56100
42408,56118
42410,56117
42407,56103
42419,56107
42388,56108
42409,56084
42399,56081
42396,56070
42398,56066
42388,56055
42397,56050
42398,56059
42404,56052
42395,56051
42384,56058
42381,56059
42398,56055
42400,56066
42389,56088
42401,56082
42406,56065
42404,56079
42399,56086
42404,56067
42400,56062
42409,56078
42407,56075
42407,56069
42410,56064
42392,56074
42400,56076
42408,56063
42390,56074
42405,56073
42396,56081
42387,56099
42385,56091
42405,56084
42423,56093
42415,56109
42400,56110
42414,56120
42415,56082
42409,56094
42409,56087
42398,56086
42412,56090
42416,56090
42418,56090
42417,56098
42412,56115
42405,56095
42409,56096
42400,56106
42401,56108
42411,56101
42414,56102
42422,56114
42422,56114
42426,56127
42418,56118
42422,56127
42416,56121
42420,56124
42411,56129
42425,56131
42419,56117
42427,56114
42414,56119
42422,56123
42423,56132
42411,56135
42437,56120
42427,56130
42433,56136
42423,56134
42428,56152
42413,56150
42418,56152
42429,56141
42436,56159
42425,56146
42435,56154
42430,56136
42430,56157
42439,56154
42439,56158
42433,56156
42446,56164
42436,56170
42438,56160
42427,56165
42441,56162
42431,56173
42443,56176
42439,56180
42446,56176
42436,56167
42446,56174
42444,56173
42440,56176
42434,56172
42441,56198
42452,56206
42444,56197
42456,56200
42448,56197
42460,56211
42450,56198
42458,56209
42445,56204
42436,56206
42458,56209
42448,56217
42448,56196
42464,56223
42453,56225
42455,56219
42449,56218
42451,56222
42443,56205
42456,56233
42461,56231
42464,56245
42469,56235
42444,56223
42456,56237
42463,56248
42462,56242
42452,56220
42465,56212
42449,56204
42453,56185
42455,56196
42443,56168
42448,56177
42447,56179
42454,56163
42436,56162
42447,56176
42464,56179
42449,56183
42459,56176
42440,56188
42461,56189
42462,56192
42451,56198
42451,56192
42436,56197
42446,56181
42452,56205
42431,56221
42449,56195
42451,56166
42435,56188
42441,56156
42457,56178
42461,56189
42442,56198
42465,56215
42433,56209
42466,56207
42469,56198
42483,56202
42453,56218
42437,56208
42438,56215
42446,56188
42454,56219
42447,56201
42461,56207
42461,56205
42444,56204
42441,56229
42461,56208
42469,56198
42452,56219
42466,56223
42450,56216
42455,56212
42465,56224
42467,56219
42469,56230
42467,56213
42455,56231
42448,56223
42456,56220
42472,56230
42466,56238
42457,56240
42470,56249
42478,56245
42461,56252
42470,56227
42457,56248
42477,56242
42458,56240
42467,56246
42465,56238
42471,56255
42465,56253
42465,56257
42469,56250
42477,56266
42475,56265
42474,56261
42465,56276
42455,56264
42476,56259
42469,56259
42463,56272
42477,56273
42480,56279
42475,56280
42489,56276
42473,56280
42474,56286
42477,56287
42481,56289
42480,56284
42488,56287
42481,56285
42482,56295
42475,56292
42471,56298
42480,56314
42483,56311
42476,56288
42479,56300
42490,56292
42471,56316
42475,56301
42504,56296
42497,56315
42493,56316
42487,56328
42501,56329
42482,56302
42492,56313
42478,56328
42499,56314
42498,56335
42495,56320
42486,56327
42493,56337
42492,56335
42495,56337
42494,56327
42495,56330
42483,56318
42485,56290
42476,56290
42480,56298
42459,56265
42455,56264
42472,56259
42466,56259
42463,56266
42461,56263
42478,56252
42470,56272
42480,56278
42480,56283
42478,56279
42474,56289
42477,56283
42485,56291
42491,56266
42471,56262
42480,56276
42468,56280
42486,56254
42464,56254
42460,56266
42461,56263
42478,56269
42476,56264
42468,56270
42457,56263
42459,56270
42465,56284
42483,56284
42490,56265
42477,56287
42476,56279
42472,56285
42469,56283
42471,56284
42474,56266
42460,56284
42462,56270
42463,56275
42478,56288
42473,56276
42461,56273
42474,56277
42452,56271
42463,56274
42490,56292
42474,56283
42468,56278
42478,56283
42474,56291
42476,56282
42480,56297
42471,56285
42469,56284
42481,56298
42478,56305
42473,56275
42481,56311
42476,56310
42471,56312
42497,56295
42476,56301
42481,56291
42467,56300
42476,56310
42488,56317
42478,56313
42476,56312
42475,56285
42475,56320
42484,56321
42486,56301
42474,56312
42478,56311
42483,56314
42471,56312
42487,56330
42497,56320
42485,56322
42482,56327
42487,56334
42486,56335
42474,56326
42481,56345
42480,56340
42475,56326
42487,56338
42474,56346
42479,56336
42486,56347
42485,56341
42490,56358
42487,56354
42480,56352
42492,56353
42475,56344
42486,56350
42486,56362
42495,56366
42496,56373
42502,56373
42474,56355
42485,56382
42495,56367
42494,56371
42486,56362
42479,56363
42485,56388
42491,56388
42497,56373
42491,56372
42494,56391
42491,56378
42486,56381
42505,56383
42500,56385
42501,56372
42516,56400
42496,56377
42483,56407
42497,56386
42498,56403
42499,56402
42490,56406
42494,56398
42502,56402
42504,56404
42475,56418
42493,56377
42496,56358
42489,56362
42461,56353
42475,56323
42474,56339
42475,56337
42461,56334
42473,56313
42480,56336
42469,56348
42470,56348
42473,56331
42485,56348
42460,56339
42481,56349
42477,56361
42490,56381
42479,56339
42471,56307
42463,56330
42473,56348
42475,56333
42451,56331
42465,56334
42479,56349
42476,56338
42488,56327
42491,56353
42492,56335
42475,56347
42450,56347
42456,56362
42478,56358
42483,56361
42490,56374
42483,56374
42494,56362
42463,56341
42472,56349
42475,56339
42483,56350
42466,56350
42469,56352
42472,56360
42486,56362
42470,56355
42483,56351
42485,56361
42469,56375
42480,56368
42478,56370
42473,56365
42473,56380
42482,56387
42496,56378
42473,56373
42489,56368
42475,56372
42480,56392
42483,56383
42483,56385
42488,56391
42472,56380
42472,56395
42491,56397
42465,56383
42455,56377
42477,56392
42470,56389
42482,56390
42486,56393
42481,56389
42477,56378
42483,56409
42495,56405
42482,56408
42483,56390
42481,56414
42487,56396
42493,56401
42484,56405
42492,56413
42481,56419
42491,56413
42494,56418
42480,56414
42480,56417
42474,56422
42492,56424
42484,56414
42492,56419
42489,56428
42498,56428
42490,56438
42488,56436
42517,56429
42489,56447
42479,56436
42507,56440
42478,56442
42490,56450
42483,56438
42490,56437
42500,56445
42497,56456
42505,56464
42498,56455
42503,56450
42497,56455
42501,56425
42497,56417
42482,56408
42480,56401
42476,56384
42475,56388
42465,56386
42486,56390
42457,56379
42468,56368
42469,56391
42484,56395
42466,56397
42472,56401
42468,56409
42470,56395
42465,56405
42471,56393
42468,56396
42460,56398
42475,56397
42465,56383
42468,56392
42461,56379
42480,56367
42474,56377
42474,56386
42480,56390
42474,56402
42479,56386
42458,56401
42480,56399
42463,56408
42483,56399
42484,56413
42493,56411
42470,56417
42473,56401
42468,56409
42473,56417
42474,56408
42482,56408
42483,56405
42477,56394
42466,56416
42478,56410
42460,56412
42480,56409
42481,56418
42469,56415
42484,56420
42484,56405
42473,56422
42461,56410
42480,56413
42475,56426
42474,56417
42458,56436
42481,56427
42482,56437
42468,56437
42475,56448
42468,56430
42472,56450
42478,56447
42472,56435
42478,56432
42494,56441
42471,56444
42474,56448
42481,56445
42491,56447
42487,56439
42485,56453
42481,56442
42475,56450
42481,56457
42486,56463
42485,56466
42470,56454
42477,56461
42482,56469
42487,56461
42480,56464
42488,56473
42476,56478
42477,56457
42472,56471
42477,56483
42486,56496
42498,56470
42485,56481
42486,56484
42491,56484
42493,56497
42490,56480
42490,56490
42496,56485
42499,56516
42486,56493
42501,56497
42499,56498
42475,56513
42489,56496
42510,56504
42491,56504
42492,56516
42490,56518
42503,56512
42481,56518
42477,56524
42490,56520
42500,56523
42492,56531
42507,56509
42503,56530
42498,56538
42506,56526
42494,56541
42501,56526
42494,56516
42488,56535
42493,56534
42502,56523
42495,56498
42486,56496
42469,56483
42480,56476
42480,56474
42479,56466
42464,56469
42479,56450
42465,56456
42472,56466
42475,56498
42467,56473
42471,56480
42482,56483
42480,56497
42477,56483
42486,56500
42488,56505
42491,56483
42477,56486
42479,56493
42482,56483
42470,56488
42471,56482
42475,56480
42454,56478
42477,56481
42483,56493
42472,56494
42478,56508
42473,56461
42477,56476
42485,56476
42479,56496
42491,56494
42494,56507
42486,56491
42490,56508
42491,56520
42488,56506
42500,56496
42504,56494
42457,56495
42467,56473
42469,56511
42466,56501
42475,56508
42481,56513
42477,56513
42485,56502
42495,56513
42472,56522
42489,56524
42483,56508
42477,56520
42500,56526
42486,56521
42474,56524
42492,56518
42484,56528
42484,56526
42500,56539
42490,56546
42470,56527
42475,56538
42482,56539
42471,56541
42493,56548
42484,56552
42478,56548
42483,56553
42494,56544
42489,56543
42483,56543
42507,56550
42498,56534
42493,56551
42496,56552
42489,56538
42496,56566
42482,56557
42497,56566
42485,56563
42490,56565
42488,56548
42502,56571
42503,56554
42483,56576
42486,56561
42508,56574
42483,56586
42477,56587
42492,56592
42501,56580
42490,56576
42495,56606
42478,56572
42501,56586
42495,56589
42489,56589
42483,56574
42503,56594
42500,56590
42490,56608
42486,56605
42506,56615
42505,56597
42512,56616
42501,56598
42492,56614
42489,56605
42492,56610
42486,56600
42502,56616
42509,56606
42502,56582
42487,56610
42493,56615
42497,56621
42493,56623
42489,56609
42500,56600
42495,56605
42479,56586
42493,56566
42482,56540
42479,56549
42464,56561
42475,56552
42476,56542
42494,56545
42497,56546
42488,56554
42477,56571
42479,56548
42500,56563
42475,56589
42499,56571
42486,56579
42487,56575
42493,56569
42487,56575
42487,56568
42484,56564
42467,56563
42481,56570
42495,56569
42483,56575
42486,56563
42479,56576
42499,56560
42489,56579
42489,56579
42487,56584
42487,56574
42493,56579
42506,56588
42496,56587
42493,56588
42493,56576
42493,56589
42475,56565
42491,56576
42481,56578
42492,56586
42492,56593
42481,56565
42495,56591
42486,56586
42485,56621
42499,56606
42495,56596
42488,56599
42503,56594
42495,56595
42494,56588
42477,56607
42500,56596
42498,56597
42508,56596
42479,56618
42497,56605
42497,56612
42488,56614
42487,56606
42504,56613
42481,56604
42486,56600
42491,56618
42496,56623
42493,56618
42502,56615
42491,56606
42500,56623
42500,56621
42497,56623
42487,56629
42497,56623
42500,56637
42489,56617
42496,56643
42491,56635
42495,56628
42496,56635
42501,56644
42504,56646
42494,56634
42491,56633
42487,56645
42499,56627
42500,56635
42505,56656
42497,56632
42501,56645
42505,56629
42499,56662
42504,56656
42495,56663
42493,56644
42499,56659
42506,56669
42510,56657
42509,56670
42501,56661
42508,56662
42496,56671
42499,56679
42510,56664
42500,56674
42510,56673
42503,56670
42516,56665
42513,56687
42509,56672
42507,56669
42505,56672
42493,56650
42500,56651
42488,56630
42499,56614
42487,56612
42476,56609
42473,56600
42482,56597
42479,56588
42492,56602
42488,56604
42484,56600
42492,56622
42482,56601
42498,56599
42488,56622
42494,56637
42491,56610
42476,56611
42484,56642
42492,56613
42481,56598
42488,56588
42485,56587
42479,56594
42475,56585
42485,56602
42465,56586
42486,56576
42486,56591
42488,56596
42483,56599
42479,56595
42488,56601
42457,56602
42482,56617
42486,56635
42483,56608
42485,56599
42487,56573
42490,56587
42478,56582
42485,56588
42464,56592
42478,56589
42474,56605
42474,56590
42479,56608
42474,56598
42498,56599
42479,56615
42445,56590
42463,56603
42489,56589
42475,56615
42462,56604
42454,56603
42476,56615
42489,56612
42478,56619
42486,56613
42479,56596
42475,56601
42481,56597
42469,56627
42474,56616
42465,56616
42489,56613
42477,56613
42476,56620
42472,56611
42478,56619
42465,56621
42485,56617
42473,56621
42468,56607
42472,56635
42476,56626
42477,56614
42461,56617
42486,56631
42490,56638
42490,56629
42485,56628
42473,56625
42482,56638
42482,56629
42490,56627
42480,56632
42475,56638
42481,56637
42473,56640
42473,56650
42477,56637
42483,56647
42465,56649
42481,56667
42486,56655
42479,56647
42486,56655
42485,56662
42477,56659
42490,56661
42483,56649
42487,56638
42488,56649
42485,56669
42481,56659
42494,56650
42491,56663
42491,56668
42500,56665
42489,56667
42480,56661
42487,56678
42484,56683
42490,56677
42494,56661
42500,56682
42496,56686
42486,56684
42502,56696
42481,56664
42478,56653
42471,56640
42468,56621
42459,56602
42445,56600
42460,56588
42462,56590
42453,56590
42469,56598
42466,56592
42454,56588
42465,56571
42447,56585
42476,56593
42453,56593
42462,56595
42449,56608
42458,56594
42456,56603
42435,56585
42445,56578
42449,56580
42452,56586
42458,56577
42451,56565
42457,56568
42440,56562
42459,56574
42440,56568
42445,56566
42453,56570
42456,56569
42451,56577
42459,56577
42465,56581
42443,56582
42451,56570
42451,56571
42448,56564
42445,56570
42442,56584
42451,56569
42441,56559
42447,56568
42437,56549
42453,56580
42458,56561
42441,56570
42442,56552
42439,56570
42436,56566
42435,56570
42460,56557
42439,56567
42435,56565
42433,56566
42437,56560
42452,56581
42446,56563
42441,56561
42437,56563
42442,56575
42447,56579
42444,56565
42431,56568
42446,56563
42449,56570
42438,56573
42440,56567
42432,56571
42452,56576
42436,56558
42440,56556
42430,56580
42436,56565
42429,56582
42439,56577
42426,56579
42431,56570
42421,56583
42428,56576
42447,56588
42438,56596
42443,56587
42442,56587
42446,56586
42438,56587
42444,56588
42428,56594
42439,56589
42438,56588
42430,56589
42461,56599
42442,56582
42443,56594
42438,56596
42445,56594
42461,56594
42447,56602
42440,56598
42455,56597
42449,56596
42445,56603
42439,56605
42442,56593
42450,56583
42424,56594
42451,56590
42457,56583
42428,56556
42430,56546
42407,56530
42423,56528
42414,56514
42406,56496
42404,56490
42416,56503
42403,56494
42396,56485
42400,56489
42412,56496
42418,56505
42406,56507
42419,56502
42407,56480
42413,56498
42419,56492
42398,56486
42410,56472
42398,56470
42392,56452
42396,56475
42387,56466
42380,56457
42401,56457
42386,56461
42391,56449
42386,56455
42405,56447
42399,56429
42392,56450
42404,56469
42384,56436
42394,56456
42395,56456
42395,56439
42372,56448
42386,56431
42372,56439
42382,56442
42392,56444
42373,56417
42384,56425
42370,56428
42381,56433
42374,56423
42407,56480
42383,56431
42378,56448
42377,56452
42388,56427
42388,56387
42360,56414
42389,56424
42387,56425
42380,56437
42369,56440
42384,56429
42384,56416
42385,56426
42390,56424
42390,56436
42380,56431
42357,56428
42359,56434
42387,56436
42372,56434
42390,56437
42395,56439
42376,56413
42399,56432
42386,56433
42385,56435
42374,56435
42388,56428
42385,56434
42383,56434
42382,56432
42390,56429
42382,56428
42380,56432
42395,56430
42376,56443
42393,56431
42390,56441
42388,56451
42385,56454
42387,56446
42385,56440
42393,56419
42383,56455
42386,56437
42395,56433
42394,56453
42378,56448
42379,56453
42393,56453
42391,56448
42395,56441
42394,56459
42386,56458
42374,56442
42375,56445
42380,56414
42365,56400
42373,56394
42363,56379
42363,56354
42347,56341
42359,56347
42347,56329
42356,56320
42355,56329
42355,56331
42353,56331
42329,56336
42347,56322
42350,56307
42354,56328
42360,56330
42363,56307
42351,56313
42356,56302
42336,56295
42337,56294
42335,56276
42335,56266
42343,56261
42329,56266
42342,56248
42342,56254
42323,56231
42349,56271
42330,56271
42337,56287
42345,56281
42344,56276
42330,56277
42331,56254
42342,56258
42346,56261
42329,56265
42335,56242
42325,56244
42321,56249
42348,56247
42319,56241
42337,56233
42336,56240
42340,56230
42336,56243
42338,56242
42320,56249
42327,56230
42325,56242
42341,56252
42328,56231
42339,56241
42323,56238
42334,56239
42320,56252
42341,56250
42331,56233
42323,56232
42329,56239
42349,56249
42340,56239
42340,56255
42329,56235
42336,56240
42334,56257
42346,56236
42346,56241
42340,56238
42325,56247
42326,56246
42330,56242
42337,56249
42325,56235
42337,56254
42327,56253
42355,56246
42348,56248
42337,56250
42342,56250
42324,56248
42324,56250
42335,56244
42336,56253
42349,56259
42337,56270
42354,56262
42339,56275
42360,56258
42348,56257
42332,56259
42336,56265
42349,56253
42358,56253
42335,56260
42345,56275
42335,56270
42367,56265
42349,56287
42364,56283
42345,56281
42355,56281
42338,56280
42360,56262
42344,56292
42349,56293
42346,56294
42347,56295
42338,56278
42343,56282
42352,56264
42339,56255
42351,56229
42335,56218
42329,56201
42325,56189
42324,56169
42315,56171
42309,56186
42328,56177
42318,56177
42316,56171
42322,56177
42323,56171
42321,56182
42318,56173
42319,56178
42319,56179
42321,56176
42322,56156
42329,56177
42312,56153
42334,56154
42307,56139
42304,56135
42314,56138
42317,56146
42302,56147
42308,56140
42314,56132
42317,56148
42324,56162
42314,56148
42325,56157
42322,56142
42306,56153
42324,56139
42320,56144
42306,56159
42305,56144
42303,56132
42298,56151
42297,56142
42305,56132
42298,56137
42320,56135
42308,56136
42323,56130
42312,56128
42315,56120
42328,56145
42325,56123
42331,56141
42315,56136
42304,56129
42316,56135
42317,56138
42303,56140
42321,56144
42323,56150
42325,56136
42316,56144
42310,56139
42317,56146
42336,56141
42312,56130
42327,56135
42323,56154
42317,56149
42331,56156
42319,56149
42345,56153
42329,56160
42304,56151
42320,56181
42319,56156
42298,56137
42319,56166
42316,56177
42319,56162
42323,56144
42329,56142
42330,56150
42335,56169
42339,56171
42319,56179
42321,56160
42342,56171
42343,56182
42353,56169
42339,56153
42324,56171
42300,56139
42316,56144
42292,56123
42323,56115
42298,56089
42316,56107
42295,56092
42289,56095
42308,56095
42315,56109
42322,56105
42296,56104
42303,56111
42308,56107
42314,56101
42298,56100
42309,56102
42293,56094
42307,56099
42302,56070
42297,56072
42308,56074
42291,56074
42297,56086
42303,56084
42306,56085
42305,56089
42303,56071
42306,56093
42309,56087
42305,56100
42292,56091
42303,56109
42324,56103
42309,56085
42311,56098
42313,56105
42306,56101
42315,56114
42314,56093
42305,56106
42304,56102
42308,56122
42311,56102
42307,56105
42309,56102
42316,56104
42308,56098
42318,56114
42316,56123
42330,56119
42311,56112
42308,56118
42322,56122
42320,56119
42317,56123
42302,56131
42310,56112
42318,56135
42309,56143
42314,56124
42327,56139
42314,56128
42312,56133
42329,56138
42325,56132
42317,56152
42318,56156
42337,56158
42329,56146
42339,56141
42323,56158
42320,56148
42330,56168
42321,56153
42321,56170
42333,56189
42339,56173
42322,56167
42323,56166
42329,56172
42341,56181
42329,56191
42328,56178
42337,56192
42341,56176
42341,56192
42347,56173
42343,56189
42343,56188
42333,56202
42339,56213
42332,56203
42339,56210
42348,56225
42345,56216
42345,56215
42347,56223
42343,56215
42347,56213
42350,56224
42351,56227
42335,56228
42361,56224
42352,56227
42356,56245
42361,56232
42353,56250
42349,56244
42351,56238
42352,56241
42365,56246
42371,56260
42355,56260
42358,56260
42366,56268
42369,56263
42342,56235
42352,56227
42345,56229
42340,56223
42334,56202
42329,56204
42335,56194
42326,56201
42337,56206
42334,56211
42353,56218
42346,56214
42358,56209
42346,56233
42350,56229
42363,56227
42358,56219
42363,56229
42349,56234
42334,56238
42335,56238
42351,56243
42351,56235
42342,56232
42326,56212
42358,56225
42351,56211
42346,56232
42352,56250
42358,56229
42347,56243
42357,56257
42356,56254
42366,56257
42355,56261
42366,56256
42361,56254
42353,56260
42359,56263
42357,56270
42380,56273
42370,56250
42379,56261
42369,56260
42380,56272
42374,56275
42353,56266
42382,56284
42355,56269
42378,56276
42369,56285
42375,56286
42378,56298
42377,56285
42372,56306
42383,56295
42373,56288
42379,56298
42377,56317
42384,56299
42378,56300
42387,56332
42381,56318
42399,56317
42377,56314
42384,56326
42387,56330
42405,56324
42389,56332
42387,56329
42388,56334
42382,56344
42381,56344
42392,56332
42408,56337
42390,56361
42393,56335
42394,56355
42403,56358
42401,56357
42408,56363
42410,56363
42384,56357
42399,56361
42387,56367
42402,56369
42412,56365
42412,56363
42396,56381
42411,56371
42404,56371
42402,56391
42422,56380
42414,56388
42400,56375
42420,56381
42418,56394
42405,56393
42413,56399
42399,56390
42431,56401
42424,56401
42412,56403
42415,56399
42427,56431
42429,56417
42422,56418
42447,56405
42441,56425
42423,56413
42417,56425
42428,56432
42425,56457
42439,56449
42435,56435
42422,56406
42432,56450
42437,56429
42439,56430
42439,56410
42429,56414
42441,56406
42416,56396
42426,56388
42435,56392
42445,56380
42414,56375
42393,56376
42403,56388
42424,56401
42434,56415
42432,56407
42443,56418
42430,56420
42435,56422
42441,56429
42427,56432
42440,56424
42435,56403
42433,56413
42428,56418
42431,56425
42432,56416
42425,56423
42434,56421
42439,56415
42432,56432
42430,56425
42441,56451
42442,56435
42449,56451
42454,56447
42438,56457
42435,56448
42437,56451
42441,56465
42439,56452
42435,56464
42464,56451
42446,56450
42455,56466
42464,56461
42451,56462
42461,56462
42457,56464
42447,56468
42462,56463
42452,56467
42439,56476
42444,56469
42447,56498
42465,56484
42456,56485
42448,56489
42452,56493
42462,56480
42447,56494
42471,56496
42441,56490
42463,56502
42457,56504
42456,56498
42454,56521
42467,56517
42475,56496
42476,56511
42448,56511
42476,56509
42471,56516
42483,56507
42473,56520
42465,56517
42465,56524
42461,56531
42475,56536
42481,56534
42487,56543
42477,56538
42473,56546
42473,56536
42480,56536
42472,56548
42472,56548
42492,56552
42485,56556
42477,56546
42491,56553
42492,56555
42473,56560
42479,56553
42485,56572
42479,56570
42492,56553
42490,56568
42482,56570
42493,56574
42475,56574
42493,56592
42492,56578
42497,56588
42509,56575
42496,56593
42487,56604
42501,56590
42498,56606
42501,56601
42486,56598
42492,56596
42489,56613
42506,56600
42488,56598
42506,56621
42501,56619
42518,56628
42508,56618
42490,56611
42492,56607
42516,56620
42508,56607
42500,56611
42504,56594
42495,56576
42480,56553
42491,56554
42480,56563
42482,56558
42478,56553
42474,56559
42480,56557
42497,56563
42504,56570
42493,56562
42495,56573
42501,56590
42492,56586
42493,56570
42500,56588
42491,56583
42497,56579
42506,56582
42493,56587
42494,56572
42477,56568
42495,56587
42500,56579
42491,56590
42486,56586
42495,56588
42493,56593
42488,56596
42497,56574
42504,56609
42511,56606
42486,56596
42503,56619
42507,56625
42501,56603
42508,56629
42517,56608
42505,56619
42502,56606
42501,56616
42513,56611
42520,56619
42509,56610
42501,56620
42499,56606
42495,56622
42503,56621
42508,56628
42510,56619
42517,56638
42507,56626
42518,56637
42515,56636
42518,56628
42520,56646
42518,56626
42513,56649
42516,56646
42499,56646
42511,56646
42506,56669
42514,56664
42509,56644
42516,56656
42533,56655
42512,56666
42518,56654
42516,56668
42518,56669
42518,56669
42511,56668
42518,56675
42519,56675
42542,56667
42530,56674
42526,56671
42523,56682
42524,56677
42525,56693
42535,56678
42515,56693
42529,56680
42533,56681
42525,56683
42539,56692
42538,56680
42528,56683
42533,56686
42527,56688
42543,56699
42536,56703
42539,56707
42521,56698
42535,56702
42526,56713
42541,56717
42535,56710
42533,56725
42531,56709
42548,56718
42547,56701
42540,56713
42535,56721
42535,56723
42540,56724
42534,56730
42537,56726
42542,56722
42543,56742
42557,56737
42562,56731
42546,56731
42553,56732
42541,56739
42555,56739
42520,56750
42552,56747
42548,56769
42556,56778
42562,56747
42543,56728
42555,56750
42566,56765
42541,56762
42543,56778
42547,56758
42567,56771
42559,56756
42583,56775
42542,56764
42541,56732
42517,56730
42502,56718
42520,56723
42534,56712
42530,56694
42529,56702
42536,56684
42535,56697
42536,56696
42550,56695
42539,56693
42534,56714
42518,56708
42543,56719
42542,56714
42541,56732
42531,56734
42528,56710
42539,56712
42530,56734
42545,56715
42537,56709
42536,56713
42545,56706
42547,56718
42521,56695
42526,56695
42533,56713
42544,56710
42560,56723
42544,56721
42550,56719
42527,56713
42544,56730
42554,56729
42559,56721
42535,56736
42550,56727
42540,56727
42550,56727
42530,56740
42544,56722
42534,56719
42547,56731
42536,56731
42524,56729
42550,56734
42541,56726
42545,56726
42552,56740
42549,56740
42554,56728
42555,56742
42548,56739
42541,56725
42545,56731
42559,56726
42529,56738
42545,56734
42545,56739
42535,56735
42551,56750
42560,56746
42540,56750
42546,56743
42556,56759
42544,56738
42555,56748
42541,56765
42551,56757
42562,56741
42544,56743
42541,56759
42550,56756
42561,56770
42559,56776
42535,56762
42551,56756
42543,56758
42550,56743
42534,56772
42558,56779
42552,56770
42547,56776
42551,56778
42570,56765
42569,56771
42540,56768
42563,56775
42558,56773
42564,56781
42561,56787
42574,56783
42563,56772
42559,56782
42566,56770
42577,56791
42554,56791
42568,56791
42572,56797
42577,56791
42563,56794
42551,56789
42568,56784
42564,56794
42563,56801
42559,56791
42563,56788
42567,56813
42561,56799
42555,56800
42561,56791
42580,56799
42572,56821
42565,56807
42568,56815
42572,56818
42575,56811
42559,56819
42576,56813
42561,56811
42567,56806
42569,56784
42562,56782
42543,56764
42538,56741
42553,56749
42542,56742
42535,56732
42531,56723
42546,56743
42539,56729
42534,56734
42537,56741
42533,56736
42545,56753
42553,56725
42556,56752
42539,56743
42550,56738
42554,56731
42549,56730
42554,56731
42538,56739
42541,56723
42531,56735
42541,56718
42527,56706
42535,56727
42530,56725
42525,56715
42534,56726
42536,56712
42528,56732
42541,56724
42544,56747
42533,56735
42535,56733
42527,56735
42521,56724
42533,56727
42529,56735
42523,56728
42540,56722
42531,56730
42525,56715
42533,56703
42536,56708
42531,56718
42522,56727
42518,56718
42517,56711
42527,56721
42533,56721
42527,56717
42523,56724
42517,56724
42531,56717
42530,56734
42524,56719
42516,56721
42524,56733
42513,56728
42521,56741
42524,56727
42524,56716
42521,56719
42536,56721
42545,56723
42525,56726
42524,56740
42519,56748
42541,56721
42531,56735
42507,56748
42521,56732
42507,56726
42522,56733
42521,56740
42527,56738
42543,56739
42518,56742
42534,56740
42518,56739
42526,56744
42516,56754
42525,56746
42531,56752
42518,56762
42530,56750
42515,56761
42522,56748
42516,56746
42518,56751
42531,56763
42526,56742
42521,56751
42515,56772
42518,56752
42517,56758
42529,56760
42523,56767
42549,56759
42527,56765
42531,56758
42532,56772
42526,56775
42528,56779
42535,56776
42527,56788
42552,56797
42524,56774
42527,56756
42534,56786
42533,56765
42523,56777
42535,56775
42533,56792
42533,56780
42527,56782
42518,56785
42557,56793
42560,56800
42535,56792
42529,56807
42510,56790
42508,56801
42530,56797
42523,56801
42546,56792
42536,56779
42518,56765
42512,56732
42513,56732
42492,56709
42499,56704
42488,56701
42496,56683
42500,56702
42497,56687
42494,56685
42494,56675
42484,56681
42506,56693
42501,56694
42481,56687
42497,56672
42494,56696
42491,56679
42499,56691
42486,56669
42500,56675
42483,56667
42483,56662
42488,56678
42480,56653
42481,56654
42473,56650
42492,56656
42463,56656
42478,56651
42477,56649
42485,56642
42480,56660
42484,56666
42484,56654
42484,56653
42485,56654
42473,56648
42468,56658
42465,56654
42464,56653
42477,56637
42467,56632
42457,56655
42452,56623
42463,56637
42457,56626
42469,56627
42468,56635
42468,56623
42473,56625
42468,56623
42461,56630
42457,56624
42443,56621
42454,56637
42453,56637
42443,56646
42474,56620
42457,56636
42455,56641
42456,56633
42456,56634
42450,56629
42451,56636
42459,56641
42453,56648
42458,56635
42466,56638
42471,56625
42444,56632
42459,56644
42463,56641
42470,56651
42450,56648
42464,56644
42454,56648
42438,56649
42463,56640
42472,56653
42443,56641
42452,56646
42462,56641
42467,56660
42467,56647
42467,56656
42454,56647
42454,56641
42452,56657
42450,56645
42454,56655
42456,56656
42458,56660
42451,56663
42466,56660
42453,56654
42460,56650
42476,56656
42457,56669
42458,56668
42466,56686
42467,56676
42456,56671
42462,56675
42459,56666
42459,56675
42453,56689
42472,56672
42468,56686
42455,56660
42463,56676
42474,56680
42470,56692
42465,56683
42456,56692
42484,56684
42466,56680
42465,56693
42473,56700
42463,56686
42461,56699
42464,56699
42473,56707
42475,56719
42477,56707
42473,56694
42459,56695
42457,56683
42465,56673
42447,56648
42454,56637
42421,56610
42442,56600
42437,56574
42437,56584
42439,56582
42425,56558
42430,56569
42428,56544
42420,56569
42440,56570
42438,56574
42437,56573
42423,56569
42427,56549
42431,56555
42421,56551
42424,56552
42426,56560
42411,56548
42433,56543
42408,56531
42401,56534
42414,56539
42402,56510
42411,56520
42421,56535
42412,56529
42400,56516
42405,56533
42405,56544
42411,56530
42413,56527
42397,56519
42418,56521
42402,56521
42404,56531
42405,56503
42401,56518
42406,56506
42400,56502
42405,56509
42401,56502
42391,56480
42382,56505
42410,56486
42389,56502
42414,56501
42403,56493
42399,56486
42404,56494
42408,56491
42428,56489
42395,56481
42411,56490
42399,56504
42395,56488
42419,56498
42396,56498
42407,56488
42403,56486
42395,56512
42404,56495
42399,56491
42397,56496
42407,56493
42404,56495
42417,56508
42403,56491
42407,56499
42397,56495
42390,56501
42412,56512
42390,56497
42404,56506
42403,56501
42399,56495
42396,56505
42399,56490
42403,56512
42400,56514
42411,56508
42414,56518
42418,56499
42413,56522
42390,56513
42415,56517
42420,56520
42417,56521
42407,56518
42398,56511
42405,56513
42414,56532
42397,56528
42419,56517
42411,56457
42402,56507
42425,56525
42402,56521
42417,56534
42419,56525
42413,56527
42409,56514
42430,56547
42448,56542
42431,56529
42394,56535
42416,56534
42399,56495
42418,56530
42411,56542
42423,56547
42426,56551
42424,56534
42420,56528
42418,56541
42420,56546
42415,56524
42395,56499
42390,56470
42396,56448
42380,56427
42386,56412
42366,56397
42380,56397
42368,56376
42378,56370
42390,56381
42363,56370
42364,56371
42367,56374
42354,56351
42374,56373
42370,56360
42382,56356
42365,56350
42367,56352
42354,56351
42371,56349
42348,56327
42360,56332
42348,56322
42357,56325
42356,56322
42350,56311
42351,56294
42343,56295
42339,56294
42348,56308
42348,56294
42345,56304
42339,56291
42343,56323
42360,56295
42363,56289
42355,56296
42358,56277
42344,56294
42348,56286
42350,56269
42333,56271
42344,56258
42357,56273
42354,56261
42339,56269
42341,56271
42343,56261
42355,56266
42344,56262
42334,56261
42334,56249
42337,56254
42353,56260
42348,56265
42349,56269
42350,56259
42346,56252
42341,56263
42345,56256
42349,56250
42347,56256
42352,56261
42355,56257
42357,56253
42344,56265
42343,56242
42340,56266
42342,56243
42362,56265
42347,56267
42355,56259
42343,56239
42355,56249
42334,56272
42348,56269
42365,56267
42346,56252
42351,56248
42357,56267
42356,56260
42369,56271
42360,56266
42356,56273
42363,56264
42365,56280
42352,56253
42359,56269
42358,56260
42371,56274
42365,56278
42362,56282
42364,56256
42359,56278
42357,56277
42367,56278
42364,56279
42371,56278
42366,56268
42359,56273
42362,56280
42371,56291
42371,56289
42380,56294
42362,56294
42376,56285
42355,56283
42380,56297
42375,56295
42376,56294
42366,56296
42359,56285
42379,56303
42379,56294
42384,56317
42389,56313
42382,56316
42387,56325
42370,56308
42374,56295
42379,56287
42385,56264
42367,56233
42353,56219
42353,56205
42347,56167
42343,56161
42336,56138
42328,56129
42329,56116
42332,56134
42314,56116
42334,56122
42325,56125
42326,56116
42325,56109
42320,56107
42324,56106
42330,56106
42324,56098
42322,56090
42321,56085
42331,56089
42324,56078
42326,56060
42310,56067
42319,56052
42316,56060
42303,56036
42314,56049
42311,56035
42313,56050
42307,56043
42316,56049
42327,56032
42302,56039
42310,56042
42309,56053
42308,56030
42328,56034
42313,56034
42303,56024
42311,56023
42308,56022
42308,56024
42317,56031
42312,56015
42313,55998
42323,56016
42305,56013
42312,56003
42309,55992
42304,56001
42305,56005
42302,55994
42311,56012
42309,56001
42311,56004
42309,56007
42315,56007
42315,55993
42322,56006
42320,56003
42325,56011
42303,56014
42319,56005
42315,56019
42313,55995
42329,55987
42333,56018
42329,56002
42326,56023
42314,56010
42313,56021
42320,56016
42334,55996
42320,56026
42321,56030
42326,56027
42330,55994
42328,56009
42314,56020
42329,56025
42323,56010
42334,56013
42322,56032
42354,56046
42342,56031
42340,56029
42369,56042
42338,56040
42339,56033
42347,56044
42319,56047
42342,56069
42343,56068
42353,56040
42332,56031
42348,56054
42356,56047
42343,56039
42357,56040
42337,56056
42341,56038
42348,56052
42343,56047
42365,56058
42376,56054
42361,56045
42335,56069
42326,56027
42352,56064
42359,56070
42369,56052
42359,56056
42336,56042
42335,56020
42342,55982
42331,55998
42312,55960
42309,55936
42311,55932
42305,55915
42313,55904
42307,55897
42286,55888
42298,55889
42304,55890
42309,55878
42308,55876
42308,55887
42282,55882
42308,55890
42317,55871
42296,55888
42305,55872
42302,55863
42299,55859
42309,55848
42294,55861
42299,55860
42286,55865
42288,55857
42291,55840
42292,55838
42298,55844
42302,55833
42289,55844
42307,55834
42299,55850
42282,55849
42293,55833
42300,55839
42297,55828
42280,55840
42295,55818
42296,55835
42287,55812
42294,55820
42293,55816
42302,55825
42308,55819
42287,55826
42280,55813
42287,55828
42297,55808
42297,55819
42292,55815
42294,55819
42305,55826
42280,55819
42303,55813
42290,55824
42299,55810
42304,55823
42307,55827
42316,55825
42298,55821
42308,55832
42315,55833
42314,55834
42299,55829
42301,55851
42309,55831
42305,55836
42313,55844
42308,55847
42316,55840
42303,55846
42315,55849
42304,55851
42312,55851
42313,55857
42325,55854
42320,55860
42311,55863
42320,55867
42326,55858
42325,55875
42333,55866
42325,55856
42331,55870
42326,55855
42318,55865
42337,55873
42329,55871
42321,55875
42340,55879
42321,55869
42318,55883
42328,55889
42329,55894
42345,55893
42342,55896
42331,55893
42340,55902
42329,55911
42346,55884
42340,55894
42356,55903
42345,55903
42338,55907
42331,55899
42336,55916
42357,55910
42337,55906
42351,55900
42339,55887
42340,55887
42327,55849
42316,55834
42324,55815
42296,55796
42295,55774
42309,55766
42310,55771
42281,55757
42281,55759
42284,55749
42290,55743
42281,55743
42302,55753
42295,55739
42294,55762
42287,55753
42303,55742
42294,55743
42276,55734
42294,55749
42276,55731
42300,55725
42286,55720
42282,55704
42283,55705
42285,55733
42278,55708
42288,55704
42299,55711
42300,55716
42294,55706
42283,55710
42299,55706
42292,55723
42293,55720
42282,55716
42289,55716
42298,55722
42295,55724
42292,55708
42285,55716
42296,55701
42292,55699
42295,55713
42295,55707
42292,55699
42292,55697
42286,55704
42285,55714
42288,55694
42296,55690
42296,55702
42303,55717
42288,55704
42295,55707
42298,55695
42293,55715
42308,55717
42299,55700
42302,55716
42301,55716
42294,55737
42291,55729
42303,55735
42311,55745
42312,55747
42325,55734
42300,55735
42311,55744
42303,55750
42304,55740
42308,55755
42313,55742
42316,55744
42312,55749
42323,55759
42312,55757
42308,55756
42308,55759
42323,55763
42318,55755
42317,55762
42307,55766
42320,55777
42329,55763
42315,55778
42314,55792
42309,55789
42327,55783
42320,55778
42343,55791
42309,55780
42328,55781
42328,55800
42331,55790
42335,55767
42323,55795
42339,55803
42318,55814
42328,55811
42336,55825
42337,55816
42334,55827
42318,55812
42328,55841
42366,55844
42344,55832
42333,55841
42343,55848
42341,55854
42320,55858
42356,55853
42338,55834
42357,55824
42335,55862
42348,55870
42335,55859
42343,55881
42341,55880
42344,55885
42351,55896
42382,55896
42368,55902
42343,55906
42360,55898
42328,55800
42325,55887
42337,55862
42329,55843
42332,55827
42331,55814
42318,55795
42320,55798
42316,55785
42300,55777
42305,55779
42311,55786
42310,55791
42315,55794
42312,55800
42316,55810
42320,55807
42335,55804
42328,55794
42323,55800
42327,55811
42328,55803
42334,55804
42321,55806
42324,55806
42316,55805
42311,55782
42311,55817
42316,55794
42307,55807
42322,55804
42317,55801
42319,55813
42323,55808
42325,55816
42328,55816
42328,55810
42330,55815
42327,55827
42310,55839
42320,55831
42323,55827
42331,55822
42320,55843
42334,55812
42324,55828
42330,55820
42319,55837
42332,55831
42323,55848
42332,55817
42326,55822
42317,55835
42339,55832
42332,55840
42319,55849
42344,55853
42334,55844
42334,55855
42351,55849
42341,55870
42331,55865
42338,55860
42337,55846
42330,55867
42339,55863
42343,55863
42335,55883
42346,55878
42329,55881
42338,55888
42343,55877
42336,55895
42349,55894
42340,55908
42358,55888
42340,55905
42355,55890
42361,55898
42359,55899
42350,55916
42346,55921
42346,55903
42350,55916
42363,55914
42362,55933
42365,55925
42349,55942
42356,55927
42367,55940
42353,55932
42356,55951
42355,55940
42363,55943
42355,55948
42369,55950
42359,55947
42371,55955
42366,55959
42367,55978
42380,55950
42372,55972
42382,55964
42361,55974
42384,55979
42376,55971
42377,55981
42382,55982
42368,55975
42391,55985
42388,55993
42378,55987
42380,56006
42374,56007
42374,56002
42376,56007
42381,55996
42386,55981
42375,55974
42371,55963
42359,55936
42360,55945
42353,55911
42354,55906
42350,55905
42346,55913
42346,55904
42351,55923
42345,55905
42349,55923
42349,55919
42360,55923
42363,55934
42357,55934
42343,55928
42350,55936
42352,55937
42355,55948
42347,55930
42345,55935
42352,55928
42351,55922
42349,55917
42351,55914
42337,55932
42361,55925
42349,55926
42345,55943
42337,55917
42349,55938
42358,55939
42355,55936
42367,55943
42346,55931
42352,55947
42359,55938
42356,55936
42351,55936
42348,55925
42352,55948
42366,55944
42340,55940
42341,55929
42346,55935
42356,55933
42355,55943
42360,55928
42370,55945
42353,55958
42348,55953
42339,55966
42362,55962
42352,55962
42356,55970
42370,55973
42366,55957
42369,55968
42356,55977
42363,55980
42367,55975
42367,55970
42372,55971
42372,55974
42357,55982
42363,55977
42383,55993
42378,55988
42378,55989
42353,55989
42379,55990
42379,55981
42387,56004
42360,55995
42372,56006
42383,55995
42383,56005
42372,56003
42378,56010
42372,56021
42379,56026
42389,56006
42365,56024
42379,56027
42391,56030
42401,56006
42378,56008
42390,56036
42383,56046
42378,56042
42386,56041
42387,56049
42384,56028
42389,56017
42368,55992
42382,55984
42364,55964
42361,55979
42371,55962
42376,55952
42362,55949
42355,55939
42359,55925
42357,55927
42361,55933
42352,55943
42332,55936
42345,55939
42352,55943
42341,55948
42345,55969
42358,55890
42355,55883
42349,55905
42345,55895
42340,55902
42357,55920
42339,55898
42351,55899
42344,55882
42349,55915
42364,55893
42368,55904
42333,55914
42311,55899
42344,55914
42345,55895
42332,55904
42348,55898
42346,55897
42335,55912
42343,55906
42333,55905
42337,55889
42348,55901
42337,55891
42330,55891
42336,55900
42338,55884
42341,55878
42336,55907
42333,55903
42336,55887
42349,55884
42315,55894
42344,55898
42344,55896
42339,55883
42356,55892
42323,55895
42351,55889
42337,55906
42340,55896
42338,55894
42341,55878
42352,55893
42343,55891
42354,55905
42357,55911
42336,55901
42355,55909
42336,55893
42350,55916
42344,55899
42341,55924
42344,55919
42349,55906
42346,55910
42350,55901
42339,55915
42349,55925
42344,55913
42349,55913
42347,55919
42341,55917
42349,55912
42358,55921
42350,55938
42348,55924
42346,55921
42358,55926
42361,55947
42356,55935
42362,55930
42365,55936
42357,55936
42360,55942
42350,55946
42367,55941
42359,55944
42353,55930
42349,55945
42366,55943
42371,55951
42353,55963
42357,55953
42363,55960
42357,55978
42363,55963
42356,55951
42360,55974
42351,55983
42382,55966
42368,55965
42374,55981
42369,55984
42369,55986
42368,55988
42365,55973
42361,55988
42367,55991
42372,55991
42373,55985
42368,55985
42375,56002
42378,56008
42366,56004
42378,56002
42394,56013
42375,56021
42372,55999
42368,56006
42372,55997
42367,55986
42356,55977
42346,55955
42350,55937
42334,55921
42350,55914
42346,55916
42345,55911
42343,55911
42336,55908
42349,55930
42331,55907
42338,55912
42347,55900
42343,55898
42336,55903
42343,55929
42338,55913
42338,55923
42338,55905
42319,55898
42334,55906
42333,55905
42332,55904
42320,55891
42314,55885
42323,55880
42324,55878
42322,55890
42328,55899
42335,55909
42334,55893
42341,55897
42333,55926
42340,55909
42332,55906
42321,55911
42335,55896
42326,55892
42313,55908
42338,55919
42329,55898
42334,55889
42325,55912
42326,55903
42310,55911
42334,55888
42327,55901
42328,55902
42314,55898
42336,55916
42330,55923
42324,55912
42335,55926
42318,55900
42324,55924
42332,55920
42337,55928
42326,55929
42327,55934
42331,55927
42323,55927
42323,55941
42338,55912
42334,55951
42329,55922
42343,55925
42328,55938
42326,55950
42349,55945
42340,55941
42346,55949
42350,55956
42332,55944
42335,55944
42348,55945
42335,55946
42338,55951
42340,55967
42337,55965
42345,55951
42359,55959
42346,55967
42339,55978
42356,55971
42337,55979
42338,55977
42343,55982
42349,55984
42344,55981
42345,55988
42348,55984
42348,55979
42343,55981
42353,56000
42349,56004
42357,55996
42355,56013
42352,55996
42357,56008
42354,56023
42355,56024
42369,56014
42344,56027
42358,56024
42347,56032
42360,56028
42379,56030
42375,56036
42360,56035
42370,56045
42359,56033
42358,56052
42366,56069
42371,56050
42347,56062
42355,56053
42376,56063
42367,56057
42362,56043
42352,56035
42361,56020
42356,56001
42345,56002
42338,55993
42335,56000
42344,55985
42335,55998
42324,56002
42339,56003
42348,56004
42355,56030
42353,56027
42351,55992
42361,55998
42354,55989
42342,56013
42354,56026
42356,56023
42353,56007
42349,56006
42363,55993
42348,56010
42371,56005
42338,55994
42325,56009
42371,56050
42366,56033
42351,56016
42347,56029
42346,56032
42348,56024
42348,56036
42353,56024
42372,56035
42366,56049
42362,56031
42360,56031
42357,56025
42352,56035
42355,56032
42359,56050
42355,56044
42358,56044
42360,56052
42350,56053
42371,56048
42377,56063
42355,56051
42367,56060
42369,56079
42367,56057
42358,56076
42357,56066
42361,56067
42362,56076
42367,56069
42365,56073
42373,56082
42373,56074
42378,56089
42378,56101
42371,56086
42362,56108
42377,56100
42371,56110
42362,56101
42370,56107
42374,56103
42379,56117
42371,56112
42370,56120
42372,56130
42370,56123
42386,56122
42380,56126
42389,56136
42376,56137
42378,56137
42383,56155
42387,56139
42375,56153
42383,56160
42384,56136
42391,56160
42388,56172
42405,56162
42389,56154
42396,56158
42385,56165
42398,56159
42381,56161
42407,56175
42401,56181
42392,56183
42398,56180
42401,56192
42395,56195
42400,56193
42378,56187
42402,56194
42393,56185
42400,56212
42405,56199
42404,56211
42385,56197
42396,56220
42414,56212
42421,56215
42410,56238
42429,56225
42411,56237
42421,56220
42421,56239
42417,56231
42402,56234
42422,56247
42409,56236
42399,56241
42394,56211
42409,56200
42393,56209
42402,56197
42390,56178
42385,56184
42388,56181
42386,56181
42401,56182
42395,56189
42399,56199
42395,56203
42411,56202
42404,56213
42402,56226
42404,56214
42411,56211
42400,56212
42417,56218
42404,56209
42416,56187
42401,56214
42394,56196
42427,56214
42408,56207
42402,56216
42401,56212
42410,56222
42416,56229
42412,56227
42416,56237
42413,56223
42409,56227
42407,56246
42422,56248
42423,56247
42414,56242
42423,56242
42419,56238
42409,56243
42402,56253
42397,56256
42418,56233
42413,56247
42406,56244
42418,56254
42419,56242
42418,56255
42425,56276
42420,56270
42429,56253
42419,56265
42419,56267
42425,56279
42412,56282
42421,56279
42433,56282
42425,56266
42431,56282
42426,56291
42436,56283
42421,56275
42440,56296
42425,56299
42440,56314
42437,56310
42432,56321
42421,56302
42446,56297
42434,56312
42429,56310
42422,56313
42426,56307
42448,56317
42438,56301
42430,56313
42441,56327
42435,56327
42427,56320
42431,56324
42425,56326
42435,56339
42449,56343
42432,56346
42454,56352
42444,56345
42447,56334
42443,56343
42431,56340
42440,56364
42450,56351
42444,56367
42429,56358
42446,56353
42464,56361
42436,56351
42457,56359
42446,56376
42447,56372
42443,56389
42463,56376
42448,56379
42444,56396
42463,56384
42463,56398
42447,56401
42456,56382
42447,56387
42463,56402
42454,56387
42444,56410
42464,56393
42454,56391
42446,56405
42449,56410
42451,56408
42459,56401
42474,56422
42461,56405
42469,56448
42458,56409
42461,56416
42465,56414
42456,56415
42435,56411
42455,56403
42447,56389
42450,56390
42453,56369
42434,56378
42434,56371
42436,56358
42436,56342
42444,56349
42430,56354
42436,56388
42442,56411
42429,56375
42435,56379
42444,56346
42438,56369
42449,56382
42453,56376
42445,56376
42444,56363
42440,56378
42457,56382
42463,56378
42446,56372
42468,56385
42432,56367
42421,56380
42417,56374
42444,56394
42443,56400
42453,56410
42459,56396
42450,56410
42451,56395
42467,56402
42455,56405
42457,56416
42459,56420
42454,56400
42452,56405
42466,56412
42463,56430
42459,56397
42450,56413
42457,56411
42432,56405
42452,56412
42449,56419
42462,56411
42462,56416
42453,56418
42476,56424
42463,56425
42475,56428
42460,56419
42462,56431
42462,56442
42462,56426
42470,56450
42469,56440
42465,56446
42462,56438
42469,56442
42468,56431
42467,56450
42458,56450
42476,56444
42455,56449
42461,56448
42462,56440
42473,56445
42476,56461
42477,56441
42462,56454
42463,56463
42457,56462
42463,56465
42476,56466
42475,56449
42471,56477
42478,56464
42456,56466
42470,56472
42487,56477
42470,56460
42483,56477
42462,56492
42482,56484
42484,56480
42472,56502
42466,56480
42478,56483
42469,56482
42477,56479
42478,56482
42479,56503
42479,56504
42481,56491
42471,56506
42487,56502
42476,56495
42466,56505
42472,56497
42484,56495
42481,56508
42492,56503
42470,56513
42475,56507
42485,56500
42470,56521
42486,56520
42484,56517
42489,56515
42477,56535
42497,56525
42477,56534
42490,56523
42480,56521
42483,56527
42487,56535
42478,56509
42468,56506
42464,56488
42470,56480
42465,56471
42459,56453
42459,56447
42471,56456
42471,56444
42450,56452
42455,56465
42457,56460
42453,56470
42460,56467
42463,56468
42463,56470
42471,56456
42472,56479
42464,56474
42477,56468
42458,56493
42455,56481
42475,56462
42457,56467
42475,56464
42468,56462
42451,56458
42453,56461
42455,56440
42470,56463
42474,56464
42464,56479
42471,56478
42458,56476
42459,56472
42466,56473
42470,56465
42466,56467
42460,56474
42451,56464
42457,56467
42455,56459
42464,56471
42455,56465
42457,56461
42462,56465
42462,56456
42460,56460
42454,56457
42456,56455
42438,56478
42470,56467
42475,56478
42458,56467
42466,56451
42470,56488
42453,56471
42465,56487
42459,56489
42463,56476
42455,56485
42457,56489
42456,56478
42459,56495
42456,56498
42464,56483
42468,56485
42445,56488
42449,56482
42459,56492
42468,56479
42467,56479
42452,56513
42462,56491
42460,56476
42455,56497
42463,56497
42459,56486
42458,56501
42460,56489
42459,56493
42452,56497
42462,56490
42457,56496
42476,56502
42468,56506
42455,56508
42466,56508
42454,56504
42459,56514
42459,56505
42456,56511
42466,56508
42457,56503
42455,56499
42471,56525
42461,56512
42461,56511
42461,56518
42456,56519
42458,56517
42462,56526
42459,56518
42473,56521
42444,56522
42466,56536
42444,56528
42478,56539
42476,56519
42470,56546
42444,56533
42450,56535
42460,56540
42457,56537
42469,56546
42464,56549
42456,56549
42460,56533
42466,56555
42476,56528
42458,56556
42468,56541
42461,56535
42460,56519
42445,56506
42443,56501
42448,56477
42429,56477
42444,56463
42447,56443
42427,56449
42434,56447
42424,56457
42428,56458
42435,56472
42414,56470
42439,56404
42433,56401
42452,56442
42430,56436
42428,56442
42426,56444
42433,56437
42433,56441
42408,56424
42455,56428
42435,56418
42421,56406
42416,56410
42387,56408
42389,56410
42403,56396
42401,56399
42424,56402
42400,56403
42419,56426
42398,56398
42412,56416
42421,56404
42402,56410
42406,56397
42414,56399
42397,56399
42403,56397
42409,56392
42402,56389
42391,56390
42409,56395
42396,56393
42418,56392
42393,56375
42392,56390
42407,56395
42391,56380
42385,56385
42401,56389
42389,56393
42401,56392
42402,56382
42399,56399
42395,56396
42396,56394
42396,56394
42409,56381
42404,56399
42391,56395
42402,56406
42401,56395
42399,56401
42388,56390
42401,56401
42395,56403
42396,56381
42375,56392
42393,56397
42389,56399
42381,56402
42394,56386
42394,56401
42388,56401
42387,56409
42389,56388
42376,56408
42385,56399
42376,56391
42399,56409
42401,56420
42380,56401
42380,56405
42393,56413
42398,56407
42389,56427
42415,56417
42391,56417
42394,56412
42390,56410
42402,56407
42400,56412
42393,56404
42380,56427
42390,56412
42394,56420
42386,56431
42400,56425
42393,56434
42391,56425
42395,56431
42405,56427
42394,56441
42371,56414
42376,56429
42397,56448
42398,56440
42403,56438
42402,56437
42390,56424
42404,56446
42394,56438
42410,56437
42398,56453
42402,56449
42405,56458
42390,56451
42401,56447
42392,56463
42411,56463
42401,56447
42395,56457
42392,56451
42378,56429
42389,56416
42373,56392
42389,56377
42363,56363
42366,56363
42362,56357
42364,56342
42346,56329
42367,56347
42362,56330
42341,56344
42375,56328
42353,56326
42360,56337
42354,56336
42367,56327
42360,56331
42354,56331
42357,56330
42350,56320
42348,56326
42356,56307
42350,56311
42351,56298
42349,56316
42354,56298
42352,56293
42335,56295
42345,56288
42340,56303
42339,56297
42333,56297
42345,56296
42354,56290
42331,56287
42335,56294
42346,56290
42343,56281
42344,56305
42346,56287
42340,56280
42344,56273
42335,56282
42330,56270
42343,56292
42331,56274
42336,56285
42324,56284
42331,56265
42341,56268
42332,56279
42333,56270
42321,56260
42333,56280
42331,56265
42327,56273
42322,56283
42324,56280
42321,56281
42333,56269
42334,56275
42328,56282
42325,56277
42334,56278
42325,56281
42336,56285
42342,56286
42323,56285
42320,56269
42326,56288
42325,56278
42331,56284
42336,56292
42341,56287
42335,56269
42337,56283
42324,56274
42336,56286
42346,56291
42335,56286
42335,56282
42343,56285
42334,56285
42331,56294
42340,56291
42339,56288
42338,56291
42331,56284
42342,56277
42331,56299
42349,56289
42334,56290
42339,56296
42349,56296
42353,56308
42338,56309
42345,56315
42343,56313
42335,56312
42348,56313
42341,56292
42348,56317
42345,56300
42343,56302
42341,56311
42338,56320
42357,56309
42336,56319
42341,56315
42339,56333
42337,56316
42345,56315
42342,56323
42339,56308
42329,56312
42331,56303
42332,56277
42333,56255
42321,56254
42313,56245
42301,56212
42318,56200
42286,56183
42292,56179
42279,56183
42295,56183
42308,56202
42297,56203
42294,56186
42299,56161
42291,56167
42306,56169
42297,56150
42297,56165
42305,56154
42283,56161
42286,56153
42295,56142
42273,56136
42300,56110
42278,56125
42245,56126
42267,56112
42276,56137
42282,56126
42275,56106
42289,56123
42282,56116
42284,56143
42284,56133
42286,56131
42274,56124
42276,56133
42282,56134
42281,56110
42273,56112
42277,56102
42273,56104
42285,56102
42269,56096
42285,56095
42272,56095
42273,56097
42283,56098
42279,56087
42271,56092
42267,56103
42278,56086
42271,56100
42272,56096
42263,56097
42253,56093
42273,56099
42286,56094
42279,56082
42279,56102
42274,56100
42291,56121
42275,56095
42273,56084
42259,56117
42282,56093
42288,56087
42281,56102
42279,56088
42285,56094
42289,56096
42281,56114
42282,56107
42290,56101
42282,56113
42279,56093
42273,56105
42283,56101
42285,56098
42276,56102
42297,56104
42286,56115
42282,56113
42289,56108
42280,56124
42285,56113
42295,56126
42278,56110
42296,56113
42293,56103
42287,56114
42275,56106
42297,56118
42292,56106
42285,56108
42276,56126
42296,56125
42293,56116
42289,56119
42302,56128
42299,56127
42288,56132
42286,56122
42278,56136
42305,56143
42308,56117
42300,56161
42296,56139
42306,56122
42308,56131
42297,56136
42297,56138
42282,56146
42295,56143
42305,56142
42317,56150
42300,56149
42318,56149
42302,56150
42322,56143
42313,56125
42308,56159
42310,56155
42311,56163
42300,56149
42307,56157
42302,56143
42288,56141
42290,56093
42283,56093
42285,56075
42262,56061
42274,56046
42273,56024
42263,56026
42254,56025
42259,56003
42262,56016
42268,56018
42252,56006
42262,56022
42253,56019
42268,56014
42252,56022
42262,55992
42266,56005
42257,55999
42242,55983
42252,55983
42236,55999
42250,55994
42235,55974
42234,55972
42244,55966
42245,55960
42237,55952
42243,55956
42244,55966
42242,55960
42260,55964
42249,55966
42245,55964
42239,55954
42251,55962
42233,55966
42238,55959
42248,55960
42242,55945
42240,55952
42243,55952
42243,55945
42227,55937
42232,55929
42238,55928
42242,55922
42227,55931
42250,55947
42222,55928
42240,55951
42235,55932
42241,55925
42233,55931
42233,55929
42238,55946
42250,55930
42244,55943
42232,55933
42252,55937
42255,55949
42239,55942
42253,55960
42242,55948
42236,55948
42235,55946
42246,55950
42248,55944
42255,55944
42249,55948
42240,55948
42236,55950
42250,55958
42238,55936
42242,55949
42245,55945
42251,55948
42253,55946
42243,55952
42256,55942
42254,55953
42256,55964
42258,55956
42243,55943
42263,55971
42248,55962
42251,55965
42247,55964
42254,55961
42251,55949
42256,55954
42244,55965
42252,55975
42263,55974
42257,55970
42240,55968
42255,55971
42254,55964
42258,55969
42245,55993
42256,55995
42253,55981
42256,55985
42274,55967
42258,55988
42262,55988
42250,55996
42245,55994
42271,56001
42275,55976
42256,56005
42266,55993
42269,55979
42263,56003
42271,55975
42265,55996
42262,56003
42281,55992
42273,56019
42276,56011
42282,56011
42262,56016
42256,56002
42254,56016
42261,55989
42254,55995
42241,55969
42235,55962
42220,55906
42206,55900
42224,55842
42207,55864
42217,55885
42208,55864
42207,55870
42217,55866
42212,55869
42240,55870
42259,55881
42215,55875
42225,55878
42179,55871
42256,56005
42208,55862
42214,55867
42201,55849
42207,55855
42218,55860
42204,55840
42207,55853
42195,55842
42211,55841
42208,55845
42205,55836
42211,55839
42207,55845
42216,55849
42205,55835
42195,55832
42189,55824
42198,55838
42193,55829
42189,55824
42197,55830
42208,55809
42204,55814
42199,55825
42192,55829
42196,55831
42190,55819
42196,55801
42180,55804
42201,55818
42211,55800
42209,55811
42206,55814
42219,55818
42190,55817
42207,55819
42210,55809
42212,55817
42187,55828
42197,55830
42207,55819
42203,55818
42198,55815
42205,55816
42210,55816
42205,55847
42184,55823
42209,55831
42213,55817
42215,55832
42201,55833
42214,55826
42206,55830
42208,55832
42211,55831
42196,55827
42195,55815
42208,55843
42206,55837
42213,55851
42198,55834
42206,55836
42202,55852
42211,55828
42203,55840
42207,55848
42211,55855
42217,55847
42211,55834
42223,55852
42215,55854
42207,55847
42220,55851
42208,55869
42216,55834
42215,55850
42216,55857
42218,55861
42214,55868
42215,55867
42223,55878
42202,55868
42218,55856
42224,55867
42213,55859
42229,55863
42213,55877
42222,55890
42221,55890
42196,55887
42223,55890
42221,55891
42236,55881
42231,55894
42226,55898
42238,55912
42232,55904
42222,55901
42239,55909
42242,55903
42232,55920
42219,55905
42232,55920
42248,55926
42241,55918
42238,55917
42231,55929
42243,55924
42240,55909
42225,55906
42229,55890
42209,55852
42210,55845
42200,55831
42200,55838
42190,55801
42205,55794
42175,55799
42182,55767
42188,55763
42183,55778
42189,55782
42186,55769
42197,55784
42179,55749
42202,55771
42191,55769
42178,55760
42187,55764
42187,55754
42194,55745
42184,55755
42183,55744
42175,55729
42183,55730
42175,55715
42182,55718
42183,55705
42173,55714
42178,55719
42176,55719
42176,55718
42186,55704
42179,55718
42180,55713
42180,55716
42181,55696
42186,55708
42172,55714
42191,55696
42180,55701
42192,55695
42177,55684
42172,55684
42159,55695
42176,55697
42171,55683
42176,55680
42176,55682
42168,55690
42162,55682
42181,55685
42188,55694
42186,55690
42184,55690
42169,55697
42182,55687
42191,55695
42195,55688
42192,55697
42190,55699
42190,55696
42179,55685
42191,55682
42188,55705
42196,55699
42186,55702
42194,55707
42200,55697
42194,55687
42189,55693
42189,55694
42195,55694
42204,55704
42191,55715
42192,55700
42197,55709
42179,55705
42193,55691
42198,55712
42200,55706
42199,55698
42196,55717
42211,55700
42199,55714
42208,55715
42188,55711
42196,55723
42193,55708
42212,55728
42196,55722
42193,55726
42201,55724
42201,55728
42215,55729
42215,55730
42208,55734
42210,55740
42207,55748
42193,55734
42202,55734
42208,55748
42210,55738
42205,55742
42219,55739
42217,55755
42220,55742
42222,55758
42220,55777
42214,55760
42221,55770
42221,55775
42236,55778
42223,55772
42239,55779
42227,55782
42218,55785
42225,55799
42228,55804
42223,55779
42211,55742
42235,55788
42227,55765
42222,55775
42208,55765
42208,55748
42212,55739
42201,55719
42196,55680
42211,55663
42205,55662
42172,55648
42155,55635
42208,55748
42169,55627
42178,55623
42184,55614
42174,55622
42172,55628
42186,55625
42197,55627
42173,55623
42175,55634
42189,55636
42184,55624
42184,55599
42169,55603
42167,55596
42169,55602
42169,55587
42167,55594
42178,55567
42166,55572
42165,55558
42170,55594
42157,55591
42171,55582
42173,55581
42191,55575
42175,55568
42166,55566
42173,55566
42169,55580
42177,55553
42166,55570
42168,55558
42172,55554
42176,55558
42179,55555
42154,55535
42178,55542
42166,55544
42177,55546
42185,55552
42182,55548
42171,55533
42189,55549
42174,55550
42177,55549
42180,55542
42177,55552
42170,55550
42176,55547
42180,55551
42167,55563
42189,55562
42185,55549
42190,55565
42191,55553
42181,55553
42194,55568
42189,55544
42181,55556
42183,55545
42176,55571
42186,55562
42178,55553
42187,55559
42178,55575
42175,55550
42192,55579
42206,55560
42189,55565
42186,55551
42191,55566
42189,55572
42202,55546
42180,55567
42177,55551
42188,55572
42200,55563
42195,55572
42196,55580
42207,55581
42183,55585
42199,55568
42211,55575
42192,55590
42189,55578
42203,55586
42194,55576
42198,55599
42210,55596
42188,55593
42189,55570
42202,55567
42192,55534
42186,55516
42190,55508
42180,55477
42149,55473
42154,55455
42162,55451
42163,55433
42160,55428
42142,55436
42161,55417
42152,55426
42166,55422
42164,55412
42148,55408
42153,55409
42163,55400
42157,55412
42148,55395
42160,55367
42147,55367
42142,55358
42140,55347
42144,55344
42140,55327
42128,55328
42149,55332
42139,55336
42128,55320
42139,55324
42126,55314
42135,55322
42147,55317
42146,55308
42132,55320
42139,55324
42130,55300
42138,55312
42150,55302
42139,55300
42135,55297
42127,55303
42127,55296
42140,55279
42132,55288
42151,55278
42153,55277
42142,55279
42144,55288
42150,55282
42131,55273
42145,55275
42140,55278
42145,55273
42136,55255
42135,55265
42141,55254
42145,55274
42132,55275
42163,55265
42151,55244
42138,55274
42157,55280
42144,55272
42152,55267
42144,55260
42143,55277
42148,55284
42159,55267
42150,55259
42153,55277
42161,55271
42156,55282
42156,55269
42150,55289
42149,55275
42164,55275
42160,55277
42154,55275
42164,55263
42169,55259
42159,55281
42176,55279
42160,55276
42164,55268
42160,55279
42163,55291
42163,55292
42166,55279
42173,55293
42178,55284
42181,55291
42179,55284
42165,55300
42183,55290
42161,55286
42167,55298
42179,55295
42187,55305
42186,55301
42195,55304
42181,55301
42184,55309
42176,55308
42189,55321
42194,55322
42189,55313
42186,55323
42194,55312
42199,55334
42189,55326
42211,55319
42206,55324
42207,55324
42200,55331
42197,55335
42206,55341
42219,55337
42200,55358
42216,55355
42221,55355
42213,55346
42224,55374
42226,55368
42213,55363
42225,55361
42215,55347
42206,55325
42205,55302
42200,55300
42184,55274
42226,55244
42198,55228
42192,55219
42180,55201
42187,55192
42191,55203
42180,55180
42201,55177
42184,55145
42188,55188
42182,55190
42202,55179
42191,55176
42204,55176
42201,55171
42188,55174
42203,55154
42220,55145
42207,55150
42186,55122
42176,55137
42188,55127
42188,55124
42182,55118
42191,55127
42208,55119
42204,55118
42208,55114
42204,55127
42214,55142
42200,55118
42217,55128
42214,55125
42223,55132
42202,55119
42221,55126
42221,55120
42226,55106
42233,55117
42237,55119
42231,55101
42229,55101
42235,55105
42230,55109
42225,55111
42242,55114
42246,55101
42260,55125
42232,55109
42245,55111
42248,55107
42251,55119
42258,55124
42246,55128
42252,55113
42260,55103
42256,55120
42283,55121
42258,55122
42264,55120
42252,55124
42279,55134
42280,55137
42283,55128
42274,55151
42288,55140
42297,55149
42274,55152
42292,55149
42295,55158
42303,55146
42290,55152
42304,55166
42305,55144
42311,55154
42302,55157
42314,55182
42299,55171
42313,55173
42303,55182
42309,55167
42317,55180
42324,55178
42303,55188
42314,55191
42323,55195
42341,55195
42338,55202
42319,55194
42328,55204
42349,55206
42340,55203
42336,55223
42345,55214
42349,55220
42354,55232
42342,55219
42350,55239
42354,55240
42357,55242
42361,55245
42354,55237
42358,55242
42370,55253
42371,55249
42371,55252
42366,55235
42353,55212
42356,55203
42347,55178
42351,55148
42355,55148
42357,55135
42325,55132
42343,55120
42332,55106
42341,55116
42340,55113
42347,55112
42339,55112
42364,55129
42347,55122
42355,55109
42364,55114
42354,55121
42360,55109
42366,55102
42366,55096
42356,55102
42360,55095
42375,55090
42369,55097
42380,55089
42363,55084
42380,55089
42365,55082
42377,55091
42393,55089
42391,55087
42387,55108
42387,55109
42388,55105
42387,55107
42404,55106
42387,55121
42392,55101
42386,55100
42379,55102
42407,55095
42415,55104
42395,55107
42402,55097
42410,55096
42404,55115
42423,55094
42418,55114
42430,55095
42426,55113
42439,55110
42433,55112
42406,55114
42433,55119
42431,55123
42445,55145
42428,55130
42445,55118
42444,55131
42448,55138
42437,55152
42441,55131
42458,55144
42453,55151
42447,55147
42469,55161
42451,55143
42465,55143
42464,55162
42469,55174
42477,55165
42471,55168
42477,55171
42470,55172
42488,55170
42475,55183
42484,55186
42492,55206
42488,55183
42481,55191
42488,55188
42495,55194
42481,55198
42500,55208
42494,55203
42504,55215
42501,55229
42499,55222
42507,55225
42502,55238
42509,55223
42527,55216
42504,55236
42511,55234
42509,55247
42513,55245
42514,55237
42536,55241
42519,55245
42523,55237
42504,55216
42517,55218
42496,55184
42502,55188
42498,55173
42510,55163
42502,55140
42505,55152
42512,55134
42511,55135
42502,55149
42505,55134
42511,55136
42511,55149
42518,55152
42520,55144
42513,55168
42517,55147
42522,55143
42512,55123
42515,55125
42517,55130
42517,55140
42515,55119
42499,55115
42518,55093
42518,55102
42531,55106
42521,55134
42543,55145
42531,55122
42534,55144
42535,55133
42542,55122
42550,55127
42547,55135
42548,55147
42531,55144
42557,55140
42547,55136
42561,55154
42545,55169
42561,55141
42541,55087
42551,55102
42555,55109
42564,55136
42565,55157
42554,55146
42569,55134
42573,55149
42564,55151
42592,55148
42613,55142
42601,55175
42551,55156
42585,55155
42581,55161
42591,55179
42580,55179
42581,55174
42587,55182
42603,55189
42604,55196
42598,55181
42596,55193
42612,55198
42609,55191
42600,55193
42602,55196
42615,55190
42617,55209
42602,55198
42623,55225
42616,55232
42624,55215
42617,55224
42627,55234
42622,55216
42636,55240
42626,55234
42625,55250
42628,55247
42633,55256
42642,55237
42638,55251
42638,55247
42648,55266
42645,55261
42666,55270
42658,55265
42634,55269
42665,55278
42663,55269
42646,55287
42671,55281
42657,55290
42666,55294
42664,55305
42672,55287
42675,55311
42666,55310
42671,55328
42685,55315
42686,55323
42686,55325
42681,55317
42668,55320
42682,55317
42685,55327
42686,55329
42699,55342
42700,55355
42695,55357
42703,55347
42708,55379
42697,55359
42714,55361
42717,55357
42698,55383
42702,55380
42714,55351
42709,55325
42690,55336
42685,55319
42692,55302
42677,55294
42683,55296
42692,55268
42681,55280
42700,55281
42691,55278
42700,55264
42711,55276
42699,55275
42714,55282
42690,55285
42710,55300
42689,55283
42692,55281
42691,55281
42697,55290
42721,55274
42701,55259
42695,55266
42695,55269
42705,55261
42702,55274
42706,55268
42704,55265
42687,55272
42717,55276
42705,55271
42719,55284
42724,55280
42701,55278
42720,55277
42742,55270
42719,55290
42739,55298
42741,55281
42732,55282
42730,55286
42731,55266
42736,55275
42726,55275
42726,55275
42740,55295
42732,55280
42724,55288
42755,55303
42742,55278
42737,55290
42760,55298
42731,55295
42745,55295
42753,55309
42745,55314
42741,55301
42744,55313
42752,55317
42760,55315
42753,55312
42753,55311
42766,55326
42756,55332
42752,55315
42773,55317
42768,55324
42772,55323
42754,55317
42753,55324
42762,55322
42766,55327
42774,55348
42781,55346
42777,55328
42770,55325
42782,55342
42773,55337
42770,55338
42783,55345
42794,55345
42781,55366
42803,55369
42792,55350
42784,55369
42784,55358
42797,55364
42791,55361
42790,55373
42799,55371
42804,55373
42790,55375
42790,55381
42794,55377
42812,55376
42802,55383
42803,55385
42810,55397
42804,55395
42801,55384
42810,55401
42815,55415
42810,55397
42801,55392
42815,55398
42799,55406
42805,55418
42820,55429
42825,55424
42811,55418
42806,55443
42802,55416
42812,55430
42814,55417
42822,55416
42814,55393
42784,55383
42799,55367
42798,55349
42787,55337
42787,55347
42782,55335
42795,55324
42781,55343
42801,55322
42782,55347
42791,55323
42797,55333
42789,55331
42789,55315
42787,55332
42797,55325
42789,55306
42795,55295
42785,55303
42778,55307
42793,55297
42790,55287
42798,55286
42794,55266
42800,55291
42802,55298
42792,55280
42800,55283
42786,55293
42795,55298
42816,55291
42791,55296
42787,55279
42804,55293
42816,55253
42795,55276
42804,55270
42816,55277
42797,55279
42790,55277
42803,55277
42808,55262
42797,55288
42807,55262
42840,55287
42795,55286
42808,55292
42808,55281
42809,55294
42797,55299
42807,55259
42806,55239
42815,55250
42814,55283
42811,55279
42817,55291
42808,55295
42825,55278
42822,55283
42836,55284
42827,55287
42818,55287
42823,55302
42819,55280
42812,55287
42803,55303
42810,55305
42825,55298
42822,55299
42826,55299
42830,55311
42832,55294
42832,55300
42825,55308
42829,55310
42823,55323
42825,55315
42831,55312
42839,55332
42839,55313
42840,55329
42829,55342
42837,55337
42839,55338
42843,55342
42839,55325
42840,55334
42846,55345
42839,55335
42855,55341
42840,55348
42848,55355
42853,55369
42857,55367
42849,55342
42855,55356
42854,55372
42850,55361
42862,55375
42859,55375
42856,55384
42868,55390
42864,55382
42860,55384
42869,55380
42857,55383
42862,55393
42866,55388
42869,55388
42865,55407
42860,55399
42870,55415
42876,55408
42881,55404
42873,55417
42876,55425
42870,55420
42873,55416
42870,55405
42870,55394
42852,55368
42859,55355
42863,55335
42844,55331
42854,55327
42852,55324
42850,55314
42831,55300
42845,55317
42864,55302
42859,55305
42846,55308
42855,55302
42843,55311
42860,55319
42844,55320
42841,55299
42849,55321
42844,55298
42844,55298
42838,55294
42843,55283
42847,55277
42851,55279
42834,55258
42842,55269
42853,55252
42831,55266
42854,55279
42852,55262
42856,55297
42852,55280
42857,55288
42856,55277
42857,55282
42844,55283
42858,55278
42861,55263
42841,55273
42865,55263
42847,55284
42857,55251
42853,55271
42858,55271
42850,55262
42862,55269
42856,55258
42857,55277
42843,55260
42868,55269
42857,55257
42849,55277
42872,55265
42853,55280
42840,55305
42871,55289
42878,55283
42854,55274
42869,55276
42861,55281
42871,55287
42859,55274
42882,55291
42883,55287
42881,55299
42862,55296
42880,55317
42870,55300
42872,55313
42878,55308
42880,55312
42870,55309
42883,55311
42881,55333
42884,55337
42893,55332
42887,55321
42882,55332
42897,55326
42902,55331
42871,55325
42904,55342
42894,55334
42899,55347
42894,55341
42891,55345
42899,55366
42886,55377
42895,55337
42910,55366
42897,55366
42904,55368
42906,55378
42906,55378
42906,55371
42912,55381
42895,55375
42920,55386
42900,55389
42899,55399
42915,55411
42916,55401
42903,55398
42900,55413
42913,55402
42934,55416
42929,55414
42928,55424
42924,55411
42934,55419
42947,55426
42932,55415
42920,55431
42938,55427
42928,55443
42943,55446
42938,55460
42942,55456
42925,55469
42944,55466
42919,55458
42931,55463
42948,55472
42963,55474
42943,55476
42935,55488
42942,55482
42941,55470
42946,55461
42938,55461
42932,55437
42922,55409
42926,55413
42913,55407
42897,55389
42917,55391
42918,55373
42918,55360
42917,55357
42915,55363
42915,55369
42912,55379
42911,55373
42931,55376
42919,55372
42927,55387
42923,55376
42919,55375
42916,55367
42916,55373
42918,55369
42918,55367
42925,55354
42909,55351
42912,55337
42930,55352
42920,55342
42927,55347
42927,55364
42928,55340
42917,55352
42932,55361
42925,55366
42932,55354
42920,55374
42928,55355
42927,55364
42922,55364
42930,55346
42951,55351
42931,55359
42928,55352
42914,55354
42910,55353
42935,55369
42921,55364
42924,55345
42929,55320
42938,55363
42945,55331
42935,55344
42929,55352
42938,55369
42953,55371
42932,55371
42949,55374
42958,55375
42956,55376
42930,55392
42940,55384
42897,55377
42913,55381
42921,55374
42949,55390
42942,55380
42944,55392
42943,55390
42952,55389
42943,55404
42950,55387
42952,55389
42962,55398
42951,55398
42955,55394
42967,55389
42951,55416
42947,55424
42959,55418
42963,55411
42956,55408
42954,55423
42942,55433
42960,55423
42956,55417
42963,55442
42966,55434
42978,55431
42957,55445
42972,55446
42973,55437
42969,55443
42985,55437
42971,55435
42969,55461
42971,55451
42962,55445
42990,55465
42987,55460
42968,55469
42972,55469
42974,55470
42970,55475
42981,55472
42992,55468
42995,55486
42984,55485
42992,55491
42994,55497
42993,55491
42990,55499
42984,55487
42977,55501
42999,55518
42979,55512
42994,55519
42988,55504
42997,55517
42989,55504
43003,55506
42986,55489
42991,55480
42981,55458
42969,55441
42980,55432
42967,55435
42951,55423
42955,55426
42972,55398
42969,55411
42968,55408
42961,55413
42968,55410
42953,55405
42974,55406
42973,55412
42964,55402
42961,55392
42942,55404
42952,55400
42956,55393
42956,55390
42962,55380
42949,55390
42949,55365
42971,55380
42959,55372
42953,55359
42951,55370
42959,55387
42944,55366
42955,55373
42963,55367
42965,55367
42941,55382
42959,55369
42958,55394
42963,55391
42955,55381
42960,55373
42955,55384
42966,55380
42975,55395
42956,55369
42964,55393
42965,55365
42958,55378
42956,55376
42971,55378
42964,55376
42965,55381
42958,55400
42962,55407
42966,55390
42961,55378
42950,55373
42971,55378
42969,55402
42973,55398
42958,55399
42972,55385
42958,55412
42970,55390
42974,55395
42979,55414
42974,55397
42973,55401
42973,55408
42974,55406
42953,55429
42975,55410
42976,55404
42977,55407
42984,55420
42969,55411
42970,55423
42967,55421
42974,55445
42981,55417
42981,55431
42984,55449
42994,55446
42963,55442
43006,55437
42982,55435
42992,55453
42986,55443
42992,55448
42989,55455
42997,55464
42995,55447
43004,55459
42999,55463
42986,55474
42995,55472
43012,55453
43002,55471
42993,55472
42999,55483
43008,55484
43005,55492
43003,55501
43021,55495
43003,55491
43013,55494
42997,55505
43000,55506
43005,55490
43006,55489
43006,55498
43014,55516
43011,55517
43001,55507
43005,55511
43014,55520
43012,55499
43009,55524
43012,55527
43016,55526
43001,55539
43011,55530
43004,55532
43025,55535
43010,55533
43022,55549
43021,55550
43020,55542
43019,55560
43027,55569
43035,55547
43032,55539
43016,55553
43017,55521
43012,55536
43011,55514
42993,55489
42996,55490
42969,55448
42995,55448
43004,55426
42992,55432
42978,55431
42977,55424
42994,55430
42997,55434
42967,55426
42980,55437
42998,55452
42986,55432
42990,55433
42982,55426
42989,55435
42978,55435
42983,55415
42987,55412
42984,55430
42993,55398
42977,55398
42974,55405
42971,55402
42974,55395
42970,55402
42987,55388
42988,55396
42971,55388
42991,55400
42976,55405
42973,55413
42985,55415
42980,55406
42995,55448
42971,55411
42992,55413
42975,55421
42977,55407
42967,55360
42978,55375
42970,55385
42978,55399
42984,55392
42977,55395
42976,55380
42984,55396
42977,55401
42980,55400
43021,55389
42982,55398
42967,55406
42971,55406
42988,55415
42977,55402
42978,55415
42975,55410
42979,55416
42992,55410
42975,55433
43002,55416
42984,55441
42986,55429
42990,55434
42991,55427
42988,55419
42981,55420
42983,55429
42990,55422
42995,55430
42996,55439
42987,55438
42984,55433
42989,55429
42982,55427
42989,55429
42998,55425
42994,55440
42995,55443
42994,55445
42986,55451
42988,55438
43008,55446
42997,55446
43013,55462
43012,55457
43007,55459
43008,55470
43001,55475
42992,55475
43014,55468
43007,55482
43021,55459
43001,55474
43004,55465
43026,55486
43007,55470
43021,55496
43018,55477
43009,55486
43012,55478
42995,55485
43013,55489
42997,55498
43019,55503
43008,55499
43013,55497
43008,55504
43015,55508
43012,55520
43018,55512
43022,55521
43020,55518
43013,55524
43018,55528
43026,55535
43018,55543
43026,55525
43022,55540
43025,55537
43020,55514
43013,55512
42997,55496
43005,55467
43014,55455
43002,55451
42996,55417
42981,55403
42975,55401
42970,55406
42979,55406
42973,55383
42978,55403
42992,55388
42981,55408
42981,55411
42987,55398
43002,55407
42994,55409
42994,55394
42982,55386
42994,55390
42972,55389
42982,55393
42990,55382
42969,55371
42964,55366
42976,55358
42977,55380
42976,55358
42986,55365
42972,55347
42976,55356
42986,55385
42975,55373
42978,55359
42984,55372
42986,55372
42972,55375
42969,55366
42966,55366
42962,55368
42962,55355
42973,55356
42984,55359
42979,55353
42972,55364
42976,55363
42984,55372
42977,55379
42979,55349
42979,55359
42975,55360
42975,55372
42970,55376
42967,55373
42966,55370
42966,55368
42979,55364
42970,55393
42971,55369
42987,55382
42985,55401
42969,55389
42991,55378
42969,55387
42980,55391
42960,55394
42986,55375
42982,55394
42988,55399
42999,55406
42983,55409
42985,55390
42975,55391
42985,55408
42986,55408
42979,55403
42995,55420
42989,55424
42982,55421
42988,55408
42971,55422
42986,55423
42993,55422
42995,55424
42996,55429
42974,55428
42995,55437
42990,55432
42987,55458
42991,55433
43006,55455
43007,55436
42997,55436
42994,55454
42994,55448
42993,55448
43005,55451
42991,55456
43001,55453
43005,55466
43005,55472
43008,55477
43014,55462
43020,55474
43002,55462
43014,55483
43011,55482
43022,55475
43010,55489
43010,55485
43015,55507
43014,55512
43022,55494
43016,55492
43018,55512
43026,55499
43015,55506
43029,55526
43016,55519
43012,55512
43033,55501
43022,55527
43025,55501
43022,55509
43020,55514
43015,55484
43005,55460
43007,55436
42994,55425
42989,55414
42977,55410
42988,55375
42984,55385
42977,55369
42968,55388
42984,55378
42965,55381
42978,55385
42989,55394
42988,55378
42972,55383
42976,55361
42974,55388
42979,55369
42987,55362
42967,55362
42976,55352
42975,55327
42958,55346
42961,55341
42963,55326
42966,55329
42966,55336
42955,55329
42968,55339
42989,55333
42971,55337
42980,55345
42968,55338
42972,55341
42965,55343
42977,55361
42969,55339
42976,55294
42960,55296
42964,55316
42964,55328
42972,55320
42977,55329
42971,55326
42972,55318
42963,55321
43003,55313
43010,55327
42976,55318
42939,55325
42969,55321
42960,55325
42966,55323
42969,55330
42975,55325
42980,55319
42974,55331
42972,55333
42983,55339
42975,55334
42965,55345
42983,55335
42968,55338
42976,55347
42981,55348
42957,55348
42981,55353
42986,55352
42979,55335
42980,55365
42974,55344
42984,55354
42979,55357
42983,55360
42995,55356
42981,55354
42984,55367
42989,55367
42987,55381
42983,55358
42979,55356
42988,55369
42992,55380
42989,55381
42990,55380
42987,55374
42993,55398
42989,55398
42996,55381
42994,55396
42998,55382
42998,55394
42997,55390
42993,55396
42995,55397
43006,55425
43007,55410
43003,55417
42992,55421
43014,55408
43007,55423
43006,55419
43007,55425
43014,55437
42999,55433
43013,55455
43021,55440
43025,55447
43015,55434
43021,55438
43011,55443
43009,55455
43012,55438
43042,55469
43027,55464
43017,55473
43018,55463
43032,55473
43019,55483
43018,55465
43022,55479
43047,55494
43014,55474
43023,55488
43029,55490
43023,55496
43024,55462
43012,55462
43010,55442
43000,55430
42999,55412
43002,55381
42998,55382
43005,55358
42993,55360
42983,55376
42993,55344
42989,55357
42989,55357
42990,55368
42987,55362
42986,55365
43000,55390
42985,55371
43011,55375
42997,55357
42997,55354
42989,55384
42992,55363
42991,55351
42986,55358
42995,55344
42994,55344
42986,55319
42976,55334
42986,55351
42986,55344
42991,55346
42989,55356
42986,55340
42996,55344
42983,55349
42981,55369
42997,55338
42989,55355
42988,55345
42995,55351
42991,55335
42976,55347
43004,55345
43004,55330
42979,55345
42976,55323
42996,55338
42982,55334
42980,55322
42973,55340
42991,55336
42986,55340
42989,55351
42998,55359
42988,55356
42993,55377
43002,55360
42991,55353
42986,55363
42997,55365
42983,55351
42979,55358
42991,55391
42982,55368
42988,55369
42988,55379
42993,55378
42987,55364
43003,55388
42992,55386
43008,55382
42993,55376
42999,55383
43009,55373
43020,55391
42990,55394
42994,55385
43004,55374
42995,55376
43000,55388
43006,55384
42994,55406
43001,55401
43015,55400
43011,55399
43023,55396
43002,55408
43005,55412
43010,55407
43008,55413
43022,55422
43009,55420
43019,55425
43004,55441
43019,55430
43015,55435
43032,55436
43005,55450
43025,55429
43012,55456
43021,55451
43028,55455
43032,55452
43028,55442
43016,55451
43026,55460
43023,55466
43019,55457
43019,55465
43031,55459
43014,55469
43018,55488
43028,55476
43034,55471
43023,55475
43030,55467
43016,55475
43015,55443
43018,55420
42998,55412
42994,55393
42996,55375
42989,55364
43006,55359
43000,55346
42985,55347
42983,55350
42988,55346
42979,55352
42988,55339
42998,55358
42979,55351
42990,55361
42987,55342
42977,55364
43002,55339
42974,55329
42983,55333
42981,55323
42967,55320
42965,55322
42965,55319
42960,55296
42971,55284
42957,55308
42979,55284
42977,55309
42969,55305
42975,55322
43015,55443
42975,55331
42970,55337
42968,55345
42976,55323
42965,55277
42966,55272
42965,55301
42979,55303
42956,55304
42964,55320
42968,55308
42959,55290
42987,55282
42969,55302
42997,55289
42977,55299
42937,55306
43002,55339
42976,55291
42979,55286
42968,55309
42975,55300
42962,55307
42972,55310
42963,55312
42968,55303
42975,55312
42958,55315
42988,55321
42970,55320
42978,55315
42954,55331
42975,55330
42987,55322
42965,55330
42977,55342
42970,55324
42980,55322
42964,55346
42982,55341
42977,55336
42961,55350
42976,55341
42972,55357
42990,55347
42980,55341
42969,55334
42975,55352
42973,55338
42970,55345
42984,55371
42972,55351
42980,55356
42973,55367
42986,55351
42976,55357
42989,55359
42992,55374
42992,55362
42988,55361
42980,55375
43000,55377
42996,55386
42999,55361
42981,55383
42981,55377
42992,55398
42999,55407
42987,55391
43001,55387
42988,55403
42995,55394
42993,55406
42991,55408
43004,55407
43003,55404
43004,55412
43016,55395
43010,55416
43010,55409
43018,55410
42992,55434
43009,55430
43008,55437
43025,55439
43015,55439
43008,55437
43016,55451
43020,55456
43016,55451
43030,55453
43012,55453
43028,55452
43019,55470
43034,55462
43030,55475
43026,55472
43031,55468
43026,55476
43017,55477
43022,55489
43031,55467
43028,55439
42996,55444
43010,55422
43005,55409
43002,55401
42981,55374
42986,55364
42991,55357
42981,55353
42979,55362
42981,55339
42985,55341
42977,55347
42984,55356
42993,55344
42992,55355
42981,55366
42982,55334
42975,55336
42981,55341
42987,55353
42991,55339
42994,55319
42971,55311
42976,55317
42983,55297
42965,55309
42974,55315
42960,55278
42972,55302
42983,55293
42973,55295
42968,55297
42970,55317
42967,55304
42982,55323
42982,55307
42981,55316
42989,55306
42979,55313
42980,55310
42978,55313
42976,55300
42980,55290
42976,55291
42977,55303
42967,55298
42981,55301
42985,55297
42986,55287
42972,55300
42966,55289
42973,55303
42981,55292
42967,55296
42992,55287
42990,55275
42980,55291
42969,55308
42990,55308
42987,55299
42988,55303
42987,55298
42975,55315
42986,55311
42990,55311
42991,55294
42998,55307
42988,55310
42976,55314
42984,55315
42986,55335
42987,55325
42991,55333
42992,55331
43006,55323
42990,55306
42990,55331
42992,55318
43008,55335
42993,55342
43005,55329
42987,55332
43002,55340
42989,55344
43000,55346
42997,55350
42982,55329
43001,55329
43008,55357
42998,55356
43003,55353
43002,55334
43010,55352
43009,55376
43005,55367
43009,55351
43009,55369
43002,55364
43016,55357
43008,55351
43005,55381
43005,55373
43014,55367
43015,55377
43019,55372
43026,55378
43014,55384
43017,55390
43012,55386
43026,55411
43007,55395
43031,55392
43031,55390
43017,55384
42998,55406
43017,55417
43015,55416
43031,55413
43026,55431
43020,55424
43011,55410
43020,55391
43022,55389
42996,55370
42993,55349
42992,55343
42982,55354
42985,55278
42992,55296
42991,55299
42977,55273
42996,55257
42975,55282
42989,55271
42981,55280
42999,55277
42992,55289
42989,55276
43004,55278
42984,55276
42974,55278
42935,55281
42980,55272
42987,55271
42986,55293
42991,55283
42969,55217
42990,55219
42960,55241
42979,55262
42975,55245
42976,55249
42959,55272
42995,55258
42995,55260
43003,55242
42998,55254
42994,55246
42955,55245
42985,55278
42996,55247
42969,55231
42972,55238
42982,55241
42977,55215
42986,55223
42982,55235
42974,55223
42982,55251
42993,55242
42983,55259
42988,55235
42990,55240
42982,55241
43007,55244
42967,55254
42999,55243
42991,55253
42994,55237
42990,55269
42986,55259
42979,55257
42993,55266
43002,55259
42980,55267
42983,55258
42995,55260
43008,55259
43001,55255
42983,55264
42996,55270
42999,55282
42988,55273
42994,55278
43000,55290
43013,55299
42997,55285
42998,55302
43009,55295
43007,55291
43000,55282
43006,55290
43003,55282
43005,55322
42993,55301
42995,55303
43013,55318
43012,55298
43004,55315
43008,55310
43012,55308
43008,55322
43017,55325
43018,55329
43016,55340
43013,55331
43023,55331
43026,55347
43013,55325
43032,55334
43021,55348
43037,55358
43020,55346
43036,55357
43031,55355
43022,55358
43016,55362
43036,55361
43029,55372
43042,55378
43035,55372
43028,55375
43029,55391
43034,55385
43030,55398
43041,55383
43051,55404
43058,55394
43046,55410
43035,55415
43044,55416
43036,55400
43050,55391
43024,55390
43030,55386
43036,55361
43012,55347
43011,55326
43004,55309
43011,55303
43007,55304
42998,55280
43012,55294
43011,55293
43030,55294
43008,55301
43015,55287
43009,55296
43017,55304
43017,55317
43019,55301
43005,55322
43013,55304
43008,55300
42995,55306
42999,55295
43005,55292
43000,55291
42998,55283
43000,55283
42999,55267
42989,55277
43003,55279
42999,55289
43005,55292
43010,55302
43008,55307
43002,55316
43018,55298
43003,55312
43012,55300
43014,55312
43000,55315
43011,55304
43010,55301
43017,55305
43009,55307
42999,55304
43011,55303
43002,55308
43009,55290
43002,55308
43020,55310
43015,55310
43012,55317
43015,55321
43015,55316
43028,55317
43017,55314
43016,55345
43021,55336
43013,55339
43036,55341
43012,55330
43029,55337
43023,55351
43021,55333
43026,55348
43025,55361
43027,55360
43039,55361
43036,55352
43037,55354
43034,55382
43036,55380
43033,55374
43023,55357
43037,55381
43030,55376
43037,55392
43037,55379
43042,55404
43053,55403
43043,55382
43041,55387
43044,55390
43049,55409
43035,55400
43053,55416
43050,55416
43059,55423
43059,55428
43052,55419
43071,55421
43064,55427
43063,55447
43056,55448
43062,55434
43059,55438
43066,55440
43070,55453
43058,55464
43057,55458
43075,55459
43079,55474
43071,55469
43088,55469
43069,55462
43076,55479
43075,55485
43077,55462
43077,55502
43072,55497
43077,55502
43100,55522
43092,55511
43080,55513
43077,55506
43085,55511
43087,55527
43097,55525
43093,55518
43091,55532
43097,55548
43095,55537
43094,55557
43099,55546
43093,55545
43086,55544
43082,55539
43090,55532
43091,55532
43079,55498
43081,55483
43068,55478
43067,55481
43075,55484
43064,55472
43071,55495
43070,55505
43099,55487
43086,55503
43086,55513
43075,55522
43093,55519
43096,55526
43066,55529
43094,55527
43088,55548
43088,55553
43081,55552
43085,55511
43083,55496
43102,55524
43080,55528
43089,55529
43099,55538
43112,55535
43093,55532
43118,55561
43102,55545
43137,55568
43093,55567
43082,55562
43079,55498
43097,55563
43089,55559
43102,55577
43093,55573
43114,55574
43107,55577
43104,55572
43118,55577
43098,55555
43105,55564
43100,55587
43097,55598
43112,55583
43089,55574
43126,55608
43122,55601
43107,55586
43119,55614
43138,55615
43124,55613
43115,55614
43116,55621
43125,55638
43114,55622
43117,55643
43119,55612
43127,55626
43111,55644
43110,55643
43122,55648
43131,55651
43141,55648
43129,55649
43119,55664
43130,55670
43132,55661
43145,55655
43123,55659
43133,55672
43145,55670
43126,55682
43147,55672
43136,55685
43144,55677
43142,55690
43139,55706
43131,55684
43155,55693
43150,55689
43143,55701
43151,55705
43141,55727
43152,55712
43152,55712
43159,55726
43157,55723
43147,55718
43148,55724
43154,55736
43154,55749
43164,55751
43158,55738
43157,55746
43149,55770
43154,55745
43168,55749
43160,55755
43158,55757
43174,55758
43160,55762
43151,55727
43147,55727
43150,55717
43171,55706
43137,55721
43145,55701
43139,55714
43145,55716
43144,55725
43134,55708
43153,55719
43147,55712
43147,55741
43150,55737
43168,55744
43166,55734
43157,55739
43146,55744
43144,55739
43157,55733
43156,55730
43149,55716
43160,55750
43155,55739
43143,55757
43155,55733
43146,55747
43145,55739
43141,55757
43172,55771
43166,55760
43160,55771
43168,55780
43156,55778
43165,55778
43162,55775
43157,55790
43171,55783
43165,55783
43157,55799
43183,55789
43158,55788
43168,55783
43177,55774
43175,55799
43169,55779
43161,55797
43168,55795
43169,55796
43178,55818
43182,55804
43185,55823
43185,55824
43182,55828
43177,55836
43173,55832
43164,55824
43189,55848
43192,55835
43188,55846
43187,55840
43184,55830
43182,55838
43188,55826
43179,55856
43198,55847
43201,55864
43198,55873
43181,55859
43184,55866
43198,55867
43189,55879
43191,55867
43194,55865
43197,55877
43186,55876
43188,55877
43206,55882
43197,55879
43202,55894
43178,55891
43193,55893
43189,55895
43190,55893
43196,55903
43204,55897
43193,55911
43220,55915
43200,55906
43210,55918
43209,55909
43212,55910
43205,55915
43218,55929
43209,55930
43220,55930
43208,55937
43210,55941
43213,55954
43206,55946
43232,55942
43217,55954
43212,55942
43206,55959
43231,55959
43210,55959
43221,55967
43229,55963
43217,55964
43219,55972
43225,55965
43222,55972
43226,55976
43219,55979
43233,55971
43228,55969
43232,55980
43230,55987
43220,55987
43222,55988
43222,55997
43219,55990
43223,56000
43239,56009
43232,55996
43236,56012
43243,56018
43231,56009
43234,56015
43234,55987
43210,55995
43224,55968
43216,55973
43213,55947
43217,55936
43201,55954
43210,55928
43187,55931
43213,55939
43218,55970
43222,55955
43216,55957
43220,55947
43213,55962
43220,55978
43208,55955
43218,55975
43233,55969
43220,55970
43221,55952
43196,55973
43249,55961
43214,55951
43206,55971
43199,55953
43226,55967
43215,55992
43210,55986
43213,55992
43211,55972
43229,56002
43225,55958
43213,55992
43241,55980
43209,55991
43220,55991
43233,56010
43220,55981
43257,55991
43246,55993
43219,55997
43197,55990
43208,55995
43206,55988
43210,55985
43224,56000
43211,55998
43223,55981
43218,56001
43227,56007
43235,56019
43229,56017
43226,55995
43222,56013
43226,56012
43221,56013
43221,56006
43225,56015
43222,56003
43217,56028
43235,56028
43228,56036
43232,56015
43237,56027
43231,56035
43233,56032
43239,56043
43220,56035
43227,56028
43234,56050
43224,56031
43217,56034
43239,56050
43236,56051
43235,56036
43243,56052
43233,56054
43238,56065
43228,56047
43223,56050
43231,56064
43233,56069
43240,56059
43236,56075
43235,56083
43239,56076
43234,56074
43231,56074
43236,56080
43240,56095
43247,56092
43251,56089
43249,56078
43249,56088
43246,56104
43242,56081
43252,56092
43248,56093
43245,56103
43252,56098
43243,56101
43237,56109
43250,56104
43233,56113
43260,56093
43248,56116
43258,56127
43249,56111
43247,56111
43241,56109
43251,56120
43260,56127
43242,56121
43236,56130
43247,56134
43269,56132
43242,56139
43254,56132
43258,56123
43244,56121
43242,56110
43236,56079
43234,56088
43229,56063
43218,56055
43218,56044
43224,56046
43228,56053
43223,56059
43215,56075
43249,56080
43242,56079
43227,56095
43226,56088
43229,56097
43250,56093
43229,56081
43226,56081
43239,56083
43224,56082
43229,56081
43220,56076
43218,56085
43235,56075
43213,56081
43218,56075
43217,56082
43221,56082
43217,56085
43239,56093
43231,56092
43245,56087
43233,56108
43218,56088
43228,56092
43230,56099
43216,56081
43215,56093
43222,56094
43227,56088
43228,56085
43229,56095
43224,56078
43224,56093
43228,56087
43229,56102
43218,56102
43218,56111
43229,56098
43232,56090
43229,56113
43238,56095
43219,56103
43224,56109
43224,56105
43228,56112
43224,56105
43210,56110
43222,56109
43232,56117
43231,56130
43227,56119
43242,56121
43219,56112
43227,56114
43235,56117
43237,56113
43232,56122
43236,56123
43233,56128
43227,56134
43241,56122
43225,56118
43232,56131
43231,56120
43208,56136
43219,56139
43220,56143
43229,56147
43230,56136
43225,56141
43223,56144
43224,56160
43206,56160
43219,56145
43225,56137
43223,56133
43214,56153
43231,56146
43241,56168
43230,56155
43234,56147
43226,56165
43230,56165
43214,56156
43227,56179
43230,56167
43221,56173
43221,56164
43226,56171
43224,56170
43243,56182
43242,56173
43229,56173
43240,56189
43222,56176
43239,56183
43234,56191
43226,56178
43239,56172
43240,56182
43230,56190
43229,56201
43233,56191
43242,56200
43229,56209
43234,56207
43231,56191
43234,56204
43230,56212
43229,56198
43213,56178
43224,56165
43227,56141
43208,56125
43207,56133
43207,56106
43188,56120
43198,56104
43211,56107
43200,56116
43202,56126
43204,56129
43203,56126
43210,56103
43190,56124
43202,56094
43214,56113
43202,43169
43205,56100
43179,56104
43179,56104
43192,56091
43188,56090
43201,56087
43182,56079
43211,56077
43181,56072
43179,56077
43187,56078
43175,56065
43207,56112
43187,56093
43166,56065
43185,56061
43181,56094
43179,56070
43190,56076
43196,56087
43174,56075
43180,56078
43185,56075
43185,56067
43213,56073
43192,56068
43189,56058
43142,56061
43152,56061
43161,56064
43169,56065
43154,56075
43167,56076
43165,56061
43161,56078
43159,56061
43175,56065
43171,56063
43179,56084
43159,56061
43165,56081
43181,56073
43172,56069
43167,56077
43166,56069
43165,56073
43158,56065
43170,56087
43180,56067
43161,56086
43153,56075
43159,56063
43157,56083
43164,56079
43147,56072
43156,56082
43158,56087
43150,56065
43157,56069
43162,56077
43157,56078
43154,56073
43157,56079
43159,56100
43156,56091
43155,56082
43155,56100
43156,56086
43163,56085
43159,56096
43155,56108
43159,56108
43175,56094
43151,56102
43160,56087
43160,56106
43167,56093
43161,56105
43163,56098
43166,56119
43152,56117
43161,56116
43166,56113
43160,56118
43165,56123
43164,56124
43172,56113
43168,56113
43162,56130
43163,56124
43157,56118
43163,56128
43161,56134
43161,56120
43169,56116
43171,56131
43166,56126
43170,56146
43172,56155
43167,56136
43155,56151
43170,56135
43171,56141
43175,56144
43170,56153
43157,56132
43143,56118
43155,56114
43151,56109
43133,56104
43127,56072
43132,56059
43132,56054
43132,56055
43147,56035
43118,56055
43131,56044
43130,56036
43143,56041
43144,56052
43128,56071
43128,56066
43135,56056
43117,56059
43125,56062
43136,56063
43142,56055
43128,56046
43118,56032
43121,56049
43125,56044
43128,56017
43133,56026
43120,56032
43125,56041
43120,56026
43115,56041
43120,56044
43125,56041
43118,56039
43119,56051
43114,56042
43116,56051
43120,56053
43111,56040
43106,56049
43112,56030
43113,56047
43107,56042
43101,56041
43108,56035
43123,56034
43109,56032
43100,56031
43125,56034
43116,56044
43099,56032
43109,56055
43123,56042
43103,56035
43099,56044
43106,56028
43110,56044
43115,56035
43097,56040
43099,56041
43108,56044
43116,56033
43096,56039
43105,56045
43106,56047
43106,56063
43123,56046
43101,56049
43112,56060
43111,56062
43098,56044
43107,56052
43101,56054
43099,56065
43096,56056
43115,56066
43105,56061
43115,56086
43129,56064
43102,56064
43098,56062
43106,56064
43120,56058
43102,56065
43117,56071
43094,56073
43111,56085
43102,56086
43106,56080
43118,56071
43100,56082
43102,56090
43095,56076
43101,56084
43102,56090
43100,56083
43109,56081
43105,56090
43101,56094
43097,56099
43100,56093
43100,56106
43101,56088
43115,56098
43112,56097
43102,56101
43101,56084
43108,56077
43090,56074
43086,56058
43082,56039
43082,56001
43068,56004
43075,56008
43058,56008
43063,55995
43073,56004
43070,56010
43054,55996
43082,55990
43076,55999
43076,55977
43060,56008
43061,56016
43074,55971
43067,55988
43057,55982
43057,55981
43051,55978
43057,55956
43045,55967
43061,55947
43056,55961
43056,55961
43043,55961
43041,55955
43057,55912
43058,55956
43034,55967
43049,55972
43054,55952
43053,55965
43043,55966
43048,55952
43055,55971
43042,55970
43050,55957
43039,55949
43050,55936
43037,55944
43031,55953
43035,55951
43042,55919
43033,55895
43039,55922
43039,55936
43030,55945
43031,55949
43029,55940
43032,55932
43044,55941
43040,55937
43058,55940
43068,55937
43018,55937
43020,55942
43043,55961
43037,55948
43026,55952
43038,55956
43031,55961
43025,55940
43022,55941
43028,55940
43033,55957
43025,55966
43036,55956
43035,55944
43024,55942
43043,55952
43030,55944
43029,55948
43032,55975
43032,55933
43025,55954
43019,55962
43020,55946
43026,55957
43034,55965
43039,55951
43029,55978
43019,55962
43039,55961
43032,55967
43041,55974
43035,55975
43032,55972
43027,55976
43044,55970
43040,55989
43026,55974
43036,55992
43057,55983
43051,55982
43034,55989
43042,55996
43047,55979
43030,55974
43030,55989
43028,55971
43035,55991
43044,55997
43047,56018
43040,55987
43029,55996
43056,56005
43033,55994
43041,55992
43041,56006
43045,56012
43034,56018
43044,56016
43049,56016
43041,56003
43047,56011
43049,56014
43039,56022
43032,56015
43026,55997
43023,55983
43037,55951
43019,55933
43020,55933
43009,55896
43004,55919
43018,55895
42998,55894
42997,55899
43016,55903
42996,55907
43010,55897
43008,55901
43001,55914
43008,55908
42999,55913
42991,55893
42993,55890
42981,55891
42996,55884
42995,55888
42990,55875
43000,55886
43000,55867
42981,55862
42974,55855
42996,55854
42984,55862
42979,55871
42977,55872
42998,55866
43000,55876
43003,55873
42984,55881
42978,55875
42994,55886
42977,55876
42977,55882
42982,55878
42976,55875
42989,55856
42982,55873
42987,55870
42986,55871
42977,55859
42984,55875
42981,55863
42987,55860
42985,55871
42984,55853
42977,55865
42983,55865
42974,55866
42982,55860
42993,55877
42989,55875
42977,55866
42977,55877
42986,55865
42969,55878
42986,55870
42991,55896
42995,55885
42988,55875
42993,55885
42987,55872
42981,55875
42984,55889
42986,55888
42988,55889
42981,55888
43001,55908
42975,55895
42988,55885
42980,55910
42985,55887
42982,55915
42999,55902
42997,55902
42989,55911
42978,55911
42974,55912
43008,55900
42995,55926
42991,55910
42986,55908
42991,55894
42983,55907
42980,55905
43001,55900
42989,55912
43007,55914
42993,55906
42994,55916
42999,55925
42994,55925
42988,55928
42989,55927
42996,55933
43007,55928
42999,55924
42992,55928
42994,55946
43007,55930
43003,55945
43010,55936
42997,55946
43009,55953
42987,55958
43000,55952
43005,55952
43015,55967
43008,55943
43007,55964
42997,55955
43002,55961
43010,55954
43005,55966
42996,55965
42998,55930
42978,55932
42981,55916
42968,55879
42957,55901
42968,55878
42964,55863
42967,55860
42954,55849
42961,55839
42961,55839
42961,55844
42971,55862
42959,55871
42960,55863
42976,55870
42961,55849
42963,55852
42957,55860
42968,55847
42981,55863
42958,55863
42963,55845
42971,55838
42960,55826
42954,55838
42949,55835
42958,55839
42955,55842
42962,55853
42968,55838
42962,55830
42936,55843
42962,55841
42954,55869
42961,55844
42964,55847
42957,55837
42969,55829
42950,55826
42952,55838
42953,55833
42964,55825
42922,55826
42961,55834
42958,55864
42953,55853
42946,55816
42952,55810
42961,55822
42950,55840
42963,55833
42965,55831
42956,55840
42947,55841
42969,55835
42981,55838
42962,55842
42955,55833
42927,55852
42955,55842
42949,55845
42952,55842
42969,55845
42967,55844
42960,55837
42961,55839
42968,55841
42958,55857
42961,55859
42960,55844
42961,55859
42952,55859
42963,55861
42978,55866
42985,55873
42960,55864
42968,55856
42956,55866
42955,55877
42982,55873
42967,55874
42966,55869
42958,55867
42975,55898
42964,55886
42977,55885
42965,55878
42976,55876
42968,55892
42967,55873
42983,55880
42988,55885
42965,55896
42969,55899
42968,55905
42973,55894
