44022,58250
44017,58241
44025,58247
44025,58250
44027,58232
44021,58244
44017,58246
44010,58237
44024,58248
44031,58244
44024,58248
44028,58257
44024,58246
44034,58237
44022,58228
44014,58246
44024,58243
44022,58236
44027,58243
44022,58228
44025,58228
44019,58252
44021,58235
44018,58224
44026,58247
44015,58241
44016,58223
44012,58237
44032,58230
44014,58233
44021,58232
44017,58235
44021,58236
44019,58254
44013,58231
44022,58235
44019,58242
44015,58241
44011,58240
44021,58271
44013,58281
44019,58223
44020,58235
44023,58238
44011,58226
44017,58241
44024,58247
44020,58249
44027,58256
44015,58253
44026,58246
44048,58240
44050,58251
44028,58260
44008,58249
44028,58243
44022,58261
44018,58260
44006,58268
44031,58249
44031,58258
44023,58252
44041,58268
44024,58260
44022,58242
44025,58261
44023,58265
44027,58280
44031,58263
44032,58279
44030,58262
44024,58273
44032,58271
44038,58267
44027,58273
44033,58275
44031,58274
44026,58283
44021,58286
44021,58284
44027,58260
44018,58246
44024,58238
44006,58242
44016,58219
44002,58223
44011,58213
44006,58207
44008,58212
44014,58197
44021,58205
44008,58203
44015,58209
44006,58212
44013,58231
44022,58219
44000,58210
44017,58221
44005,58190
44005,58203
43995,58192
43996,58193
44006,58203
44017,58190
44009,58195
44004,58188
43997,58179
44005,58191
43999,58175
44013,58189
44007,58185
44001,58198
43996,58193
44004,58213
44003,58191
44003,58189
44009,58199
44020,58186
43994,58195
44015,58208
43998,58193
44012,58191
43999,58183
44010,58197
44001,58186
44001,58195
43995,58192
43996,58211
43987,58192
44007,58196
43989,58198
44016,58189
43994,58203
43999,58191
44011,58214
44006,58186
44011,58193
44005,58211
44016,58197
44012,58201
43997,58212
44019,58223
44000,58207
44015,58226
43991,58222
44004,58211
43999,58214
43994,58204
44005,58209
44017,58197
44003,58207
44018,58215
44005,58228
44014,58213
44009,58224
44017,58224
44017,58210
44022,58241
44018,58230
44004,58245
44023,58240
44027,58263
44023,58246
44034,58276
44025,58266
44049,58285
44040,58265
44049,58293
44036,58301
44054,58298
44057,58303
44037,58287
44058,58300
44050,58310
44050,58300
44051,58302
44033,58305
44043,58301
44057,58305
44050,58285
44038,58300
44043,58290
44042,58303
44037,58281
44051,58307
44040,58298
44049,58309
44044,58307
44038,58321
44039,58306
44049,58308
44059,58316
44053,58308
44048,58318
44055,58325
44051,58317
44061,58321
44048,58332
44045,58340
44062,58340
44042,58348
44062,58341
44047,58347
44064,58331
44067,58350
44073,58350
44064,58344
44073,58347
44076,58359
44074,58368
44072,58362
44065,58371
44071,58380
44074,58369
44057,58377
44058,58350
44068,58341
44055,58340
44047,58330
44043,58308
44050,58316
44062,58317
44054,58326
44066,58325
44069,58324
44067,58321
44058,58329
44077,58340
44077,58346
44068,58361
44070,58344
44091,58367
44081,58335
44068,58349
44063,58353
44086,58346
44068,58347
44070,58339
44065,58341
44076,58342
44069,58348
44076,58354
44076,58341
44077,58356
44075,58368
44070,58378
44085,58370
44082,58370
44077,58344
44088,58380
44102,58384
44093,58375
44071,58383
44089,58387
44082,58390
44090,58382
44095,58386
44099,58380
44074,58382
44102,58401
44116,58390
44089,58404
44093,58392
44101,58407
44112,58392
44094,58411
44084,58407
44109,58407
44111,58413
44104,58421
44114,58416
44104,58384
44106,58415
44128,58428
44111,58416
44096,58422
44107,58417
44110,58416
44106,58424
44107,58429
44122,58443
44143,58452
44122,58431
44109,58446
44112,58448
44108,58451
44114,58461
44121,58477
44116,58431
44132,58436
44123,58471
44132,58452
44126,58471
44113,58458
44139,58461
44129,58471
44132,58457
44131,58468
44132,58480
44150,58480
44128,58483
44109,58482
44093,58474
44120,58480
44134,58490
44135,58480
44119,58487
44130,58490
44123,58489
44126,58512
44134,58482
44144,58491
44143,58494
44144,58497
44151,58488
44145,58518
44140,58507
44153,58509
44142,58496
44134,58508
44143,58526
44146,58515
44144,58512
44131,58524
44160,58527
44153,58530
44146,58525
44148,58529
44143,58525
44161,58530
44142,58526
44156,58540
44148,58538
44163,58534
44157,58531
44158,58540
44159,58544
44165,58549
44144,58543
44156,58544
44161,58535
44148,58536
44153,58522
44158,58522
44145,58495
44153,58499
44148,58492
44128,58492
44138,58489
44138,58510
44144,58501
44155,58502
44141,58523
44156,58518
44161,58527
44170,58539
44165,58528
44157,58519
44146,58522
44161,58531
44163,58523
44154,58519
44148,58508
44153,58502
44164,58525
44165,58513
44156,58505
44156,58508
44171,58520
44170,58537
44167,58532
44157,58528
44167,58547
44173,58532
44184,58543
44175,58550
44173,58547
44183,58550
44166,58546
44173,58540
44188,58551
44176,58554
44184,58524
44172,58554
44172,58551
44189,58550
44172,58548
44174,58562
44185,58562
44192,58557
44196,58558
44182,58576
44174,58566
44197,58555
44179,58563
44195,58553
44176,58575
44187,58578
44176,58587
44195,58586
44186,58571
44183,58574
44184,58588
44187,58589
44201,58599
44190,58582
44199,58580
44189,58594
44200,58594
44200,58588
44187,58574
44200,58614
44191,58580
44188,58614
44193,58609
44185,58607
44190,58609
44213,58623
44193,58614
44212,58622
44198,58616
44206,58625
44217,58620
44217,58621
44206,58631
44202,58631
44220,58622
44208,58635
44220,58619
44220,58629
44210,58625
44224,58634
44221,58645
44220,58646
44217,58649
44218,58650
44228,58645
44222,58644
44227,58646
44226,58647
44227,58648
44223,58646
44220,58656
44223,58652
44217,58667
44233,58652
44228,58663
44233,58671
44225,58653
44213,58654
44234,58677
44221,58677
44227,58669
44234,58666
44254,58663
44224,58667
44241,58668
44229,58693
44246,58690
44242,58688
44247,58674
44241,58678
44241,58691
44243,58688
44247,58694
44230,58692
44243,58688
44242,58705
44253,58691
44244,58699
44256,58685
44248,58678
44241,58674
44229,58667
44228,58643
44219,58651
44225,58629
44231,58645
44240,58648
44243,58626
44237,58648
44224,58646
44231,58644
44245,58665
44219,58641
44232,58664
44249,58663
44246,58658
44250,58673
44244,58656
44243,58646
44241,58646
44222,58656
44250,58647
44240,58643
44235,58653
44239,58653
44239,58665
44250,58665
44239,58651
44232,58665
44236,58666
44246,58661
44260,58688
44271,58681
44260,58671
44258,58694
44262,58665
44270,58678
44267,58687
44261,58681
44270,58690
44260,58676
44250,58678
44261,58678
44270,58681
44238,58706
44248,58681
44256,58687
44254,58686
44247,58700
44262,58676
44262,58699
44267,58686
44258,58689
44265,58714
44262,58705
44273,58706
44257,58704
44268,58719
44261,58703
44241,58700
44277,58723
44272,58729
44278,58745
44289,58722
44269,58681
44283,58695
44268,58704
44289,58732
44273,58713
44273,58737
44260,58716
44277,58745
44317,58729
44290,58731
44312,58741
44277,58736
44257,58733
44262,58730
44293,58738
44287,58736
44278,58731
44275,58731
44294,58753
44294,58749
44301,58747
44283,58754
44285,58733
44304,58737
44286,58756
44291,58768
44302,58756
44285,58739
44293,58757
44295,58747
44282,58762
44293,58761
44295,58765
44294,58754
44296,58755
44302,58765
44304,58758
44281,58758
44304,58774
44305,58774
44301,58761
44295,58771
44311,58774
44303,58784
44318,58760
44292,58788
44300,58783
44303,58784
44311,58774
44295,58791
44319,58794
44319,58781
44298,58796
44319,58804
44309,58784
44305,58811
44303,58795
44314,58795
44300,58797
44311,58800
44308,58795
44319,58808
44316,58803
44309,58791
44309,58806
44315,58788
44316,58801
44321,58806
44308,58800
44314,58798
44300,58800
44320,58785
44289,58770
44301,58764
44300,58730
44308,58722
44284,58749
44284,58756
44302,58749
44291,58747
44283,58740
44312,58746
44311,58760
44302,58760
44303,58770
44306,58753
44305,58762
44300,58777
44306,58760
44303,58763
44307,58769
44293,58762
44312,58759
44302,58750
44281,58745
44305,58731
44286,58751
44298,58746
44301,58751
44307,58751
44296,58761
44310,58760
44297,58770
44302,58755
44311,58756
44310,58755
44302,58757
44289,58761
44300,58766
44306,58766
44300,58769
44314,58762
44299,58763
44300,58749
44289,58765
44300,58771
44300,58762
44303,58769
44308,58771
44299,58776
44305,58769
44293,58764
44300,58760
44297,58772
44298,58771
44296,58780
44304,58755
44302,58777
44310,58782
44304,58772
44318,58774
44305,58771
44308,58789
44307,58777
44316,58773
44317,58770
44296,58773
44308,58773
44309,58776
44311,58786
44303,58792
44314,58777
44313,58801
44317,58775
44296,58776
44307,58775
44308,58778
44328,58781
44315,58781
44315,58791
44305,58782
44298,58786
44319,58779
44302,58798
44327,58779
44313,58793
44314,58795
44313,58793
44308,58804
44318,58790
44323,58788
44307,58797
44327,58805
44310,58787
44322,58816
44310,58801
44320,58824
44296,58791
44307,58809
44317,58785
44321,58824
44315,58802
44305,58820
44316,58829
44307,58793
44323,58801
44327,58809
44315,58803
44307,58820
44324,58822
44310,58811
44311,58818
44318,58822
44313,58805
44319,58819
44304,58839
44327,58816
44312,58814
44331,58818
44326,58829
44322,58837
44320,58844
44313,58838
44325,58825
44337,58808
44330,58828
44327,58827
44325,58826
44310,58817
44309,58800
44317,58795
44312,58759
44286,58765
44312,58759
44294,58750
44292,58734
44297,58744
44297,58748
44310,58750
44299,58758
44300,58758
44303,58761
44306,58764
44307,58758
44307,58773
44296,58766
44285,58761
44290,58761
44304,58747
44295,58761
44292,58748
44280,58745
44294,58729
44286,58754
44286,58733
44292,58750
44269,58739
44292,58730
44289,58740
44296,44267
44290,58722
44288,58753
44271,58741
44279,58739
44291,58734
44307,58734
44272,58747
44291,58736
44293,58728
44288,58737
44263,58725
44288,58742
44275,58759
44291,58738
44276,58728
44278,58700
44287,58716
44276,58734
44261,58733
44283,58722
44275,58745
44278,58736
44278,58728
44280,58731
44283,58740
44289,58733
44261,58735
44264,58723
44265,58727
44262,58738
44267,58745
44272,58730
44284,58720
44275,58736
44264,58743
44269,58746
44280,58742
44266,58741
44269,58732
44266,58745
44263,58739
44271,58737
44270,58747
44285,58744
44267,58734
44278,58754
44263,58729
44292,58754
44272,58746
44264,58733
44274,58753
44270,58740
44278,58753
44262,58740
44265,58738
44281,58752
44278,58759
44272,58755
44271,58753
44271,58761
44261,58754
44256,58754
44278,58766
44261,58762
44284,58741
44274,58755
44273,58754
44266,58762
44279,58757
44279,58764
44269,58762
44278,58766
44273,58771
44284,58765
44274,58749
44266,58779
44282,58770
44271,58766
44279,58775
44271,58773
44287,58775
44268,58778
44273,58790
44282,58771
44266,58795
44282,58778
44288,58781
44270,58771
44272,58782
44282,58782
44281,58770
44283,58789
44284,58787
44283,58803
44291,58782
44280,58793
44295,58798
44277,58791
44279,58802
44282,58800
44286,58794
44286,58807
44283,58790
44284,58783
44261,58755
44270,58746
44268,58738
44259,58722
44267,58721
44245,58727
44255,58703
44257,58694
44265,58708
44253,58705
44255,58689
44255,58713
44247,58701
44267,58704
44247,58708
44249,58716
44256,58705
44256,58705
44251,58719
44255,58703
44246,58706
44250,58716
44263,58705
44264,58673
44254,58677
44243,58684
44243,58679
44231,58667
44235,58680
44247,58683
44235,58682
44244,58676
44232,58669
44230,58691
44245,58685
44248,58681
44238,58691
44234,58680
44241,58693
44249,58682
44248,58678
44232,58671
44236,58673
44228,58666
44232,58667
44219,58661
44231,58665
44242,58673
44235,58677
44235,58659
44248,58697
44238,58688
44220,58654
44228,58681
44221,58668
44238,58677
44230,58668
44229,58666
44236,58669
44233,58685
44232,58676
44234,58670
44232,58669
44244,58659
44218,58658
44239,58653
44225,58675
44219,58666
44223,58672
44230,58665
44218,58677
44232,58663
44238,58665
44234,58668
44234,58668
44225,58670
44216,58668
44229,58674
44232,58658
44223,58676
44233,58676
44229,58689
44230,58673
44234,58686
44226,58660
44223,58675
44244,58669
44227,58682
44218,58679
44243,58691
44228,58676
44226,58686
44234,58680
44220,58680
44225,58678
44248,58687
44236,58687
44227,58700
44233,58692
44241,58690
44234,58689
44220,58689
44239,58700
44246,58693
44241,58705
44225,58712
44236,58694
44233,58697
44249,58699
44228,58709
44220,58698
44245,58706
44244,58702
44240,58695
44238,58704
44235,58706
44232,58701
44243,58720
44231,58714
44242,58712
44228,58709
44248,58717
44246,58698
44225,58701
44241,58683
44220,58651
44231,58661
44206,58651
44201,58629
44215,58631
44224,58626
44215,58604
44236,58608
44202,58615
44212,58588
44201,58610
44199,58630
44197,58616
44215,58617
44205,58607
44211,58602
44197,58587
44198,58600
44208,58596
44196,58596
44198,58585
44201,58578
44198,58558
44194,58561
44187,58570
44196,58564
44165,58573
44186,58555
44198,58556
44194,58588
44173,58584
44183,58563
44184,58525
44189,58550
44193,58561
44205,58554
44174,58553
44187,58558
44189,58547
44180,58548
44169,58535
44220,58560
44219,58550
44184,58546
44157,58520
44175,58530
44157,58537
44190,58522
44171,58525
44182,58533
44184,58528
44193,58558
44191,58530
44175,58523
44194,58533
44164,58532
44181,58528
44189,58539
44175,58532
44181,58541
44172,58528
44176,58536
44172,58552
44176,58535
44200,58531
44184,58531
44173,58548
44182,58543
44182,58533
44188,58553
44180,58523
44183,58536
44184,58535
44196,58544
44179,58529
44189,58542
44190,58539
44192,58534
44179,58539
44185,58554
44192,58529
44170,58549
44179,58549
44176,58520
44174,58532
44195,58548
44195,58545
44184,58561
44192,58542
44197,58548
44181,58550
44201,58558
44190,58543
44194,58564
44205,58545
44196,58558
44190,58547
44195,58557
44195,58549
44208,58564
44187,58546
44216,58564
44181,58554
44206,58569
44189,58565
44190,58552
44202,58565
44202,58580
44191,58577
44200,58579
44197,58565
44199,58570
44208,58571
44219,58591
44202,58575
44209,58571
44200,58584
44195,58569
44208,58578
44212,58575
44219,58586
44204,58586
44211,58604
44215,58588
44205,58600
44201,58581
44216,58604
44206,58603
44212,58595
44208,58611
44211,58588
44212,58601
44209,58610
44198,58583
44207,58573
44199,58575
44218,58547
44201,58513
44197,58514
44201,58489
44195,58482
44177,58482
44185,58490
44179,58491
44185,58476
44182,58478
44204,58479
44197,58478
44197,58501
44180,58471
44179,58479
44187,58498
44172,58494
44190,58473
44182,58477
44194,58465
44186,58450
44168,58454
44183,58439
44180,58438
44166,58445
44177,58439
44162,58452
44166,58432
44178,58442
44173,58436
44162,58426
44169,58433
44174,58445
44178,58452
44160,58443
44177,58447
44159,58447
44178,58424
44180,58429
44160,58423
44178,58437
44174,58435
44184,58423
44170,58429
44169,58408
44178,58425
44172,58413
44175,58408
44169,58426
44170,58421
44170,58411
44174,58420
44161,58426
44177,58419
44172,58413
44179,58423
44182,58426
44158,58424
44178,58423
44159,58435
44172,58434
44175,58414
44172,58430
44168,58431
44181,58431
44175,58437
44173,58452
44163,58429
44184,58439
44177,58432
44170,58431
44181,58424
44181,58419
44170,58426
44183,58424
44174,58422
44169,58428
44178,58433
44170,58435
44189,58426
44176,58444
44194,58435
44189,58434
44192,58437
44179,58427
44178,58425
44177,58445
44171,58450
44183,58441
44200,58442
44182,58448
44181,58434
44189,58431
44196,58439
44198,58457
44203,58445
44196,58446
44191,58455
44191,58451
44196,58438
44192,58451
44187,58461
44187,58456
44207,58449
44190,58457
44198,58457
44197,58478
44201,58461
44213,58458
44206,58471
44208,58460
44198,58468
44202,58468
44200,58460
44210,58472
44204,58462
44190,58465
44200,58472
44215,58464
44218,58465
44215,58482
44201,58477
44203,58491
44213,58481
44213,58482
44200,58477
44211,58493
44209,58512
44219,58484
44207,58487
44192,58457
44198,58448
44196,58413
44194,58416
44183,58404
44198,58375
44193,58377
44190,58381
44171,58348
44200,58374
44184,58396
44194,58388
44165,58371
44171,58339
44190,58355
44179,58351
44175,58357
44198,58353
44172,58353
44173,58340
44166,58351
44170,58344
44194,58339
44189,58326
44154,58324
44135,58330
44141,58334
44151,58330
44145,58322
44175,58326
44171,58328
44153,58316
44177,58326
44174,58331
44152,58321
44155,58332
44162,58314
44170,58323
44160,58310
44153,58310
44172,58310
44164,58303
44163,58303
44160,58305
44153,58289
44167,58297
44170,58288
44165,58303
44157,58310
44184,58297
44167,58300
44161,58300
44170,58299
44153,58295
44165,58306
44160,58292
44172,58310
44167,58305
44167,58297
44164,58299
44155,58307
44165,58309
44162,58310
44157,58313
44151,58311
44175,58316
44178,58302
44167,58294
44167,58300
44166,58330
44168,58316
44172,58310
44172,58312
44161,58328
44165,58324
44172,58292
44172,58308
44169,58315
44177,58306
44161,58313
44176,58327
44178,58309
44187,58307
44176,58328
44180,58327
44190,58315
44169,58322
44173,58322
44191,58352
44176,58336
44178,58324
44189,58331
44181,58316
44171,58313
44182,58330
44193,58329
44183,58334
44184,58329
44187,58346
44180,58340
44184,58342
44182,58332
44193,58348
44179,58338
44188,58351
44179,58357
44179,58355
44186,58359
44191,58353
44207,58357
44189,58364
44189,58358
44199,58344
44190,58377
44196,58356
44202,58364
44200,58359
44208,58374
44198,58374
44199,58338
44179,58334
44190,58309
44188,58309
44162,58271
44157,58271
44180,58264
44166,58252
44152,58242
44157,58236
44157,58241
44164,58217
44169,58221
44147,58232
44161,58220
44161,58236
44157,58232
44163,58227
44152,58237
44162,58225
44154,58210
44155,58199
44147,58189
44148,58186
44140,58183
44143,58167
44144,58162
44136,58175
44135,58168
44162,58176
44131,58149
44137,58160
44153,58171
44139,58162
44157,58171
44139,58173
44156,58159
44148,58171
44135,58170
44133,58157
44135,58168
44138,58145
44145,58154
44130,58144
44126,58140
44136,58138
44133,58142
44132,58147
44130,58145
44127,58136
44142,58142
44122,58138
44129,58141
44134,58131
44126,58119
44129,58134
44119,58145
44135,58144
44134,58144
44136,58141
44128,58137
44139,58134
44124,58126
44140,58137
44123,58140
44139,58136
44124,58141
44136,58153
44142,58136
44131,58131
44129,58130
44135,58139
44126,58143
44140,58131
44141,58140
44133,58128
44142,58145
44135,58142
44138,58146
44142,58136
44141,58152
44137,58164
44144,58149
44147,58148
44151,58148
44139,58153
44143,58161
44151,58171
44132,58162
44136,58153
44136,58165
44150,58171
44145,58163
44145,58175
44155,58179
44144,58175
44152,58156
44160,58170
44146,58171
44155,58182
44165,58180
44155,58161
44161,58180
44135,58173
44153,58159
44161,58176
44161,58187
44155,58172
44173,58177
44159,58191
44168,58185
44158,58193
44156,58186
44155,58197
44155,58205
44164,58199
44157,58207
44169,58213
44180,58190
44176,58212
44149,58194
44162,58215
44160,58165
44141,58153
44142,58135
44132,58117
44129,58095
44139,58083
44126,58070
44128,58067
44118,58065
44133,58077
44114,58074
44119,58057
44112,58072
44114,58055
44121,58075
44119,58064
44110,58071
44116,58080
44111,58084
44102,57998
44103,57992
44103,58018
44095,58006
44095,58020
44098,58009
44097,58019
44113,58005
44085,58008
44096,58009
44121,58010
44102,58013
44081,58010
44068,58011
44100,58003
44095,58003
44092,57994
44087,57994
44087,58012
44069,58005
44087,58001
44087,57986
44099,57991
44082,57968
44085,57973
44074,57977
44067,57975
44077,57973
44086,57981
44102,57969
44075,57975
44083,57976
44085,57972
44083,57971
44088,57978
44071,57997
44087,57978
44087,57987
44064,57995
44072,57987
44074,57985
44082,57985
44086,57980
44089,57979
44077,57989
44079,57996
44086,57990
44083,57984
44077,57992
44083,57991
44099,57984
44099,57986
44089,57990
44083,57995
44085,58003
44067,57994
44095,58001
44078,58003
44086,57992
44084,57997
44092,58007
44096,57988
44079,58007
44097,58006
44089,58013
44088,57999
44092,58009
44078,58011
44083,57986
44072,57960
44061,57960
44057,57950
44053,57927
44056,57921
44045,57909
44041,57896
44039,57888
44032,57890
44037,57883
44041,57879
44057,57873
44043,57881
44028,57867
44046,57877
44033,57883
44053,57879
44036,57872
44050,57853
44026,57858
44042,57846
44036,57845
44030,57841
44024,57830
44033,57833
44030,57810
44020,57827
44028,57827
44018,57832
44015,57824
44018,57837
44010,57826
44006,57841
44014,57837
44014,57823
44019,57827
44013,57824
44007,57829
44018,57833
44019,57819
44009,57822
44008,57826
44012,57826
44000,57824
44002,57826
44009,57819
44007,57824
44010,57815
44010,57822
43994,57815
44002,57820
43995,57812
44012,57810
44002,57819
44009,57816
44004,57846
43993,57823
44014,57830
44001,57821
44006,57838
43995,57833
44007,57822
44000,57835
44001,57859
44006,57835
44001,57833
44006,57844
44001,57836
44000,57847
44001,57848
43995,57864
44000,57857
44016,57839
43997,57848
44004,57851
44012,57852
43993,57853
44016,57870
44005,57875
44003,57852
44007,57880
44021,57866
44018,57872
44009,57878
44007,57875
44001,57876
44013,57891
44025,57893
44007,57889
44006,57880
44006,57901
44021,57890
44019,57902
44009,57902
44014,57912
44009,57923
44006,57900
44003,57908
44012,57912
44003,57926
44002,57933
44004,57937
44009,57929
44010,57926
44010,57927
44013,57924
44011,57929
44021,57957
44017,57948
44018,57958
44007,57950
44019,57960
44017,57960
44020,57968
44032,57966
44023,57961
44020,57975
44012,57970
44030,57981
44024,58004
44031,57998
44025,57999
44015,58001
44012,58012
44033,58013
44033,58020
44024,58022
44027,58019
44052,58012
44027,58050
44043,58026
44039,58039
44021,58018
44032,58016
44016,58018
44023,57983
44014,57973
44015,57976
44013,57975
44013,57960
44017,57969
44022,57977
44044,57987
44053,58008
44041,58017
44062,58041
44063,58041
44069,58046
44059,58070
44057,58070
44066,58058
44073,58089
44070,58081
44070,58077
44065,58066
44063,58061
44050,58077
44057,58051
44066,58046
44072,58042
44055,58042
44066,58019
44060,58038
44049,58053
44052,58063
44060,58056
44039,58072
44052,58063
44039,58056
44062,58067
44038,58053
44029,58057
44042,58068
44040,58053
44053,58070
44054,58089
44048,58054
44036,58022
44049,58040
44055,58058
44057,58069
44048,58067
44040,58077
44067,58071
44058,58073
44048,58084
44068,58082
44089,58094
44044,58083
44016,58078
44045,58085
44035,58095
44049,58100
44051,58104
44050,58116
44071,58114
44075,58128
44080,58129
44073,58139
44086,58171
44100,58183
44143,58233
44146,58269
44200,58292
44209,58338
44225,58368
44240,58367
44240,58376
44250,58396
44259,58412
44270,58412
44280,58420
44294,58431
44298,58422
44289,58419
44289,58430
44280,58419
44288,58419
44280,58428
44264,58411
44264,58413
44258,58389
44248,58387
44240,58386
44237,58387
44236,58366
44231,58360
44225,58372
44220,58375
44206,58370
44210,58362
44221,58366
44208,58368
44210,58365
44208,58344
44210,58351
44201,58362
44203,58344
44198,58356
44199,58349
44202,58351
44199,58357
44187,58352
44184,58364
44185,58343
44189,58357
44183,58363
44192,58369
44197,58350
44189,58356
44185,58360
44186,58364
44182,58352
44172,58337
44192,58333
44186,58324
44163,58323
44175,58299
44159,58302
44154,58306
44157,58304
44179,58283
44173,58282
44160,58282
44163,58286
44167,58299
44186,58307
44174,58299
44193,58317
44161,58318
44163,58313
44158,58322
44165,58313
44167,58326
44174,58325
44172,58309
44174,58312
44164,58333
44157,58307
44167,58316
44163,58321
44163,58319
44159,58315
44165,58327
44164,58329
44186,58325
44165,58341
44174,58330
44184,58345
44180,58344
44187,58354
44188,58355
44180,58358
44185,58334
44173,58348
44169,58351
44168,58345
44156,58332
44179,58348
44168,58344
44165,58336
44171,58346
44182,58364
44184,58361
44186,58356
44173,58357
44186,58368
44183,58368
44179,58377
44176,58369
44195,58373
44185,58375
44184,58377
44180,58386
44186,58369
44200,58377
44187,58391
44191,58372
44196,58380
44188,58392
44187,58398
44188,58392
44194,58392
44189,58394
44198,58396
44199,58415
44184,58404
44196,58406
44199,58405
44198,58401
44195,58411
44199,58418
44196,58407
44203,58410
44194,58409
44193,58415
44182,58435
44215,58433
44209,58417
44207,58429
44199,58434
44214,58439
44208,58439
44213,58431
44210,58438
44196,58443
44215,58431
44191,58429
44196,58423
44204,58401
44185,58400
44205,58399
44185,58395
44205,58391
44182,58385
44193,58380
44181,58394
44187,58397
44196,58387
44189,58402
44182,58392
44203,58387
44199,58415
44194,58405
44202,58411
44192,58382
44195,58409
44196,58396
44197,58390
44183,58399
44182,58390
44204,58385
44201,58394
44203,58394
44195,58408
44202,58397
44202,58419
44195,58420
44222,58406
44208,58411
44211,58422
44210,58398
44214,58418
44210,58431
44210,58425
44201,58422
44197,58425
44205,58423
44192,58408
44203,58420
44212,58417
44207,58417
44212,58435
44210,58427
44208,58426
44221,58440
44193,58424
44204,58426
44216,58429
44211,58437
44210,58451
44217,58443
44217,58439
44221,58448
44218,58437
44221,58445
44217,58439
44226,58452
44219,58456
44219,58463
44219,58460
44209,58459
44218,58466
44220,58460
44236,58482
44220,58472
44255,58487
44222,58469
44216,58461
44217,58475
44234,58472
44229,58513
44230,58496
44234,58469
44237,58460
44240,58490
44247,58483
44235,58492
44217,58488
44231,58482
44248,58499
44246,58490
44244,58506
44269,58509
44262,58507
44219,58503
44229,58514
44221,58445
44236,58527
44242,58520
44247,58517
44239,58540
44256,58520
44242,58527
44248,58524
44249,58539
44258,58535
44249,58551
44245,58538
44260,58554
44253,58537
44264,58549
44254,58542
44244,58533
44250,58553
44259,58568
44265,58559
44266,58547
44253,58575
44270,58564
44257,58555
44262,58560
44269,58582
44259,58573
44263,58587
44266,58574
44264,58579
44274,58581
44275,58591
44257,58595
44260,58599
44270,58595
44265,58589
44263,58570
44265,58589
44257,58589
44264,58565
44272,58541
44248,58523
44262,58523
44266,58523
44249,58521
44248,58527
44241,58521
44254,58529
44251,58552
44250,58545
44256,58536
44259,58559
44256,58556
44259,58528
44261,58545
44267,58554
44249,58544
44263,58552
44253,58536
44254,58542
44251,58544
44258,58532
44261,58541
44244,58532
44242,58522
44244,58541
44254,58545
44253,58554
44245,58539
44258,58549
44269,58547
44258,58547
44265,58560
44253,58566
44260,58552
44251,58562
44260,58550
44253,58555
44253,58548
44260,58561
44247,58539
44261,58535
44257,58547
44265,58545
44262,58561
44256,58551
44262,58550
44260,58561
44264,58576
44263,58557
44264,58548
44270,58577
44268,58575
44260,58584
44270,58579
44264,58561
44267,58571
44266,58567
44264,58569
44275,58552
44265,58584
44276,58579
44268,58561
44267,58574
44261,58582
44275,58587
44264,58566
44266,58597
44260,58575
44270,58564
44275,58600
44271,58580
44272,58595
44265,58589
44273,58592
44273,58579
44279,58578
44285,58594
44270,58587
44264,58595
44262,58604
44272,58600
44266,58609
44279,58598
44261,58607
44270,58613
44270,58614
44277,58604
44289,58603
44264,58606
44285,58603
44275,58611
44278,58604
44266,58612
44252,58610
44283,58626
44289,58632
44272,58611
44283,58630
44272,58617
44291,58624
44281,58613
44275,58618
44274,58591
44279,58594
44265,58577
44260,58560
44266,58554
44253,58545
44252,58541
44258,58565
44255,58559
44255,58556
44241,58560
44259,58557
44267,58551
44264,58556
44258,58558
44260,58561
44261,58551
44258,58549
44250,58551
44261,58535
44252,58519
44252,58538
44250,58537
44253,58533
44247,58518
44239,58517
44259,58518
44252,58521
44240,58512
44250,58529
44242,58512
44229,58525
44248,58526
44241,58523
44245,58519
44247,58513
44253,58531
44260,58531
44238,58531
44233,58510
44239,58511
44250,58518
44254,58525
44244,58501
44240,58510
44252,58528
44236,58518
44238,58506
44231,58504
44227,58531
44242,58508
44232,58513
44231,58532
44246,58505
44220,58520
44231,58521
44244,58518
44232,58524
44247,58519
44226,58518
44237,58521
44229,58523
44237,58526
44243,58527
44233,58527
44236,58531
44235,58511
44229,58515
44235,58506
44231,58523
44222,58528
44224,58489
44238,58537
44241,58518
44226,58529
44261,58528
44239,58504
44226,58527
44237,58526
44250,58528
44245,58511
44264,58528
44239,58517
44235,58531
44239,58530
44240,58542
44252,58560
44238,58529
44240,58508
44249,58506
44255,58536
44244,58530
44238,58541
44228,58549
44228,58545
44248,58535
44236,58538
44260,58539
44255,58552
44257,58549
44250,58549
44231,58523
44216,58536
44238,58568
44248,58539
44243,58554
44251,58566
44252,58566
44239,58557
44267,58564
44250,58574
44267,58562
44240,58561
44249,58582
44245,58573
44246,58580
44273,58575
44252,58553
44237,58584
44261,58572
44248,58568
44236,58591
44261,58578
44255,58581
44266,58577
44263,58594
44263,58589
44254,58593
44253,58606
44253,58591
44240,58571
44242,58576
44248,58584
44266,58551
44235,58546
44242,58531
44234,58510
44239,58492
44220,58498
44217,58477
44224,58499
44214,58502
44235,58491
44231,58493
44218,58502
44237,58495
44233,58501
44231,58507
44225,58502
44220,58507
44228,58469
44223,58487
44215,58488
44218,58481
44225,58477
44203,58467
44207,58465
44215,58466
44220,58463
44215,58469
44230,58463
44207,58463
44196,58469
44227,58473
44213,58472
44220,58464
44206,58456
44227,58457
44208,58471
44213,58460
44222,58461
44203,58461
44188,58451
44203,58461
44208,58455
44205,58453
44201,58462
44192,58451
44200,58442
44202,58445
44197,58439
44198,58450
44191,58445
44202,58446
44189,58452
44198,58453
44202,58448
44208,58456
44196,58451
44203,58464
44186,58459
44204,58456
44196,58456
44208,58443
44199,58466
44204,58456
44196,58456
44196,58455
44200,58461
44183,58466
44203,58466
44188,58463
44203,58458
44196,58465
44190,58463
44189,58444
44193,58456
44189,58460
44205,58455
44188,58464
44194,58450
44198,58451
44189,58473
44200,58465
44192,58464
44184,58473
44196,58464
44201,58463
44184,58454
44199,58464
44191,58475
44204,58479
44190,58482
44194,58470
44210,58481
44200,58477
44195,58463
44204,58471
44203,58489
44189,58472
44208,58474
44205,58480
44197,58474
44205,58486
44198,58505
44200,58498
44207,58502
44204,58488
44200,58493
44200,58488
44205,58490
44195,58494
44189,58489
44200,58509
44211,58490
44210,58502
44198,58498
44198,58500
44194,58500
44197,58504
44195,58516
44199,58514
44212,58511
44209,58494
44205,58508
44208,58523
44208,58513
44213,58521
44201,58521
44207,58509
44200,58499
44198,58490
44183,58461
44179,58446
44185,58440
44177,58414
44180,58411
44177,58398
44178,58411
44180,58417
44156,58401
44176,58423
44167,58401
44176,58414
44175,58424
44159,58410
44162,58424
44177,58403
44159,58414
44161,58418
44161,58413
44159,58402
44158,58396
44174,58402
44152,58393
44139,58381
44158,58374
44150,58382
44146,58367
44148,58365
44159,58373
44156,58392
44154,58378
44154,58375
44151,58371
44126,58374
44154,58376
44134,58371
44136,58382
44136,58346
44130,58373
44124,58364
44134,58360
44148,58340
44148,58353
44136,58350
44138,58354
44125,58362
44144,58362
44124,58347
44125,58367
44131,58364
44136,58354
44134,58363
44134,58361
44138,58363
44139,58340
44140,58362
44137,58367
44140,58371
44123,58357
44114,58355
44134,58369
44125,58377
44132,58352
44125,58357
44159,58352
44136,58347
44139,58359
44137,58352
44131,58371
44118,58403
44149,58365
44137,58339
44137,58323
44130,58362
44121,58356
44125,58360
44129,58367
44117,58370
44139,58364
44129,58364
44167,58386
44149,58379
44138,58372
44140,58371
44110,58377
44098,58360
44129,58371
44141,58388
44137,58377
44133,58386
44149,58379
44138,58371
44140,58402
44132,58377
44136,58381
44146,58395
44131,58394
44135,58409
44138,58388
44132,58406
44139,58402
44135,58408
44150,58407
44138,58415
44145,58403
44153,58409
44138,58398
44133,58419
44143,58413
44139,58409
44139,58418
44141,58410
44150,58415
44139,58426
44155,58420
44146,58413
44143,58393
44147,58389
44128,58361
44124,58361
44122,58342
44116,58332
44101,58311
44108,58293
44117,58300
44115,58294
44117,58301
44095,58288
44102,58306
44118,58299
44106,58305
44106,58311
44111,58292
44110,58305
44100,58292
44102,58282
44107,58281
44098,58291
44101,58283
44084,58257
44094,58257
44085,58255
44083,58251
44090,58239
44088,58247
44089,58245
44079,58246
44094,58224
44087,58239
44084,58251
44083,58244
44090,58240
44099,58258
44098,58231
44079,58225
44084,58228
44084,58231
44103,58233
44080,58237
44073,58241
44072,58223
44078,58223
44087,58218
44074,58217
44074,58228
44092,58218
44088,58215
44083,58218
44075,58202
44073,58220
44089,58219
44087,58233
44094,58213
44086,58232
44093,58218
44080,58202
44092,58234
44089,58229
44091,58219
44087,58218
44072,58210
44072,58219
44089,58238
44084,58223
44107,58223
44100,58221
44090,58235
44085,58223
44090,58218
44090,58233
44095,58229
44095,58246
44087,58236
44076,58238
44089,58245
44094,58224
44088,58229
44095,58225
44102,58220
44091,58243
44095,58250
44097,58238
44109,58247
44095,58253
44090,58259
44096,58249
44104,58251
44103,58247
44088,58259
44103,58260
44107,58263
44097,58259
44114,58250
44106,58265
44094,58260
44098,58256
44097,58270
44110,58274
44096,58261
44118,58267
44109,58272
44100,58267
44104,58273
44132,58263
44105,58278
44098,58259
44103,58286
44107,58285
44118,58281
44102,58286
44129,58286
44098,58289
44114,58295
44112,58290
44110,58292
44113,58292
44117,58294
44113,58314
44110,58304
44118,58317
44111,58306
44107,58321
44113,58314
44113,58311
44115,58289
44097,58300
44103,58272
44088,58247
44106,58238
44066,58225
44070,58201
44080,58198
44084,58179
44077,58176
44072,58178
44078,58186
44065,58188
44071,58189
44065,58194
44085,58184
44063,58200
44075,58193
44079,58194
44065,58185
44073,58183
44059,58194
44075,58173
44065,58164
44084,58158
44052,58164
44047,58159
44063,58164
44052,58156
44054,58155
44067,58153
44059,58179
44065,58144
44065,58166
44061,58173
44061,58171
44056,58162
44072,58159
44061,58164
44067,58152
44067,58161
44053,58145
44062,58143
44048,58155
44068,58163
44057,58144
44064,58145
44064,58132
44050,58138
44049,58132
44062,58183
44059,58146
44053,58140
44053,58158
44066,58156
44061,58130
44053,58147
44054,58138
44050,58151
44048,58136
44057,58154
44061,58145
44060,58168
44055,58157
44045,58151
44012,58148
44065,58145
44044,58182
44053,58181
44044,58161
44053,58113
44039,58125
44045,58136
44039,58163
44054,58154
44060,58167
44048,58162
44051,58168
44073,58174
44056,58145
44068,58175
44032,58158
44018,58172
44059,58146
44055,58171
44057,58164
44055,58161
44049,58155
44049,58165
44061,58180
44058,58175
44045,58187
44051,58174
44075,58173
44042,58183
44048,58171
44066,58181
44061,58183
44056,58197
44060,58181
44056,58192
44048,58188
44057,58206
44079,58204
44068,58201
44072,58196
44058,58195
44063,58199
44063,58219
44064,58209
44050,58207
44068,58231
44071,58210
44062,58210
44069,58220
44069,58218
44063,58215
44052,58228
44053,58225
44066,58232
44083,58236
44063,58207
44072,58213
44057,58188
44051,58162
44053,58146
44022,58129
44027,58126
44016,58116
44036,58103
44031,58104
44026,58108
44022,58109
44019,58107
44021,58109
44039,58104
44012,58095
44030,58116
44029,58093
44026,58085
44019,58088
44026,58093
44016,58084
44004,58099
44013,58077
44020,58083
44019,58068
43998,58064
44012,58058
44005,58047
44010,58063
44011,58057
44013,58068
44010,58073
44010,58076
44014,58073
44009,58079
44025,58074
44025,58076
44002,58082
44014,58082
44012,58082
44002,58068
44006,58048
44013,58055
43997,58062
44011,58062
43996,58058
44010,58061
44001,58048
44014,58050
44003,58062
44007,58047
43989,58063
44004,58055
44001,58055
44001,58080
44010,58060
44007,58076
44008,58063
44006,58077
43994,58071
43993,58079
44001,58072
44012,58061
44000,58071
44007,58070
44005,58067
43992,58080
44006,58075
44013,58064
44005,58074
43995,58084
44005,58087
44000,58093
44015,58100
43996,58089
44007,58085
44010,58077
43990,58077
44012,58108
44023,58082
44014,58088
44008,58094
44024,58103
44010,58114
44026,58105
44028,58098
44006,58100
44027,58113
44020,58119
44013,58130
44016,58117
44029,58124
44018,58115
44032,58123
44020,58117
44019,58122
44012,58128
44015,58135
44019,58126
44017,58124
44012,58128
44028,58136
44018,58140
44025,58152
44015,58138
44023,58155
44026,58152
44012,58161
44029,58153
44026,58179
44019,58168
44029,58157
44029,58168
44029,58150
44023,58178
44036,58177
44031,58174
44037,58164
44037,58181
44045,58188
44047,58183
44046,58190
44036,58192
44047,58197
44045,58201
44019,58216
44041,58205
44054,58214
44054,58208
44042,58212
44041,58226
44041,58211
44056,58218
44046,58206
44050,58219
44033,58204
44040,58199
44027,58160
44015,58155
44014,58139
44026,58134
44017,58131
44022,58110
44013,58125
44030,58121
44009,58122
44020,58127
44031,58127
44024,58129
44022,58120
44028,58144
44019,58149
44017,58122
44016,58148
44024,58150
44011,58135
44004,58146
44027,58142
44029,58129
44019,58106
44015,58131
44017,58105
44022,58128
44008,58116
44010,58129
44005,58125
44020,58137
44011,58135
44010,58145
44031,58140
44021,58147
44026,58158
44019,58139
44021,58152
44011,58141
44017,58131
44013,58133
44022,58132
44008,58138
44013,58138
44013,58151
44009,58136
44019,58133
44023,58138
44026,58153
44023,58133
44012,58155
44032,58138
43995,58137
44017,58166
44023,58180
44034,58179
44028,58174
44039,58124
44027,58165
44020,58164
44022,58163
44040,58176
44034,58180
44040,58189
44036,58177
44047,58176
44024,58174
44044,58181
44011,58191
44002,58190
44003,58187
44040,58197
44036,58200
44021,58191
44030,58213
44045,58212
44039,58205
44034,58208
44033,58215
44024,58193
44032,58207
44036,58216
44040,58223
44045,58224
44044,58227
44044,58214
44052,58213
44044,58227
44037,58236
44045,58236
44040,58226
44056,58233
44046,58229
44043,58234
44039,58241
44058,58244
44037,58246
44035,58260
44042,58257
44056,58244
44037,58254
44046,58264
44039,58254
44046,58245
44043,58260
44049,58261
44047,58263
44063,58259
44046,58262
44069,58278
44050,58276
44058,58281
44055,58286
44050,58281
44052,58280
44050,58263
44056,58270
44037,58249
44043,58248
44034,58225
44042,58219
44032,58199
44031,58195
44033,58200
44032,58196
44021,58189
44038,58208
44034,58219
44041,58193
44030,58225
44055,58222
44053,58219
44046,58228
44055,58204
44039,58230
44041,58214
44038,58218
44030,58213
44038,58210
44034,58204
44037,58200
44026,58187
44023,58199
44038,58210
44033,58214
44034,58220
44034,58202
44031,58213
44027,58217
44015,58217
44029,58220
44015,58213
44037,58215
44038,58231
44036,58233
44035,58212
44037,58216
44042,58219
44037,58225
44031,58217
44035,58232
44044,58216
44036,58239
44049,58218
44033,58244
44039,58222
44043,58241
44045,58234
44037,58227
44043,58232
44026,58245
44039,58247
44041,58257
44047,58238
44044,58244
44043,58244
44065,58263
44067,58242
44053,58253
44059,58252
44062,58244
44052,58244
44051,58266
44059,58242
44050,58259
44055,58262
44042,58266
44066,58266
44042,58281
44051,58264
44038,58269
44044,58263
44049,58264
44054,58262
44064,58271
44061,58269
44066,58278
44063,58273
44065,58269
44050,58278
44074,58283
44064,58284
44066,58286
44067,58281
44062,58280
44069,58301
44066,58298
44056,58296
44069,58310
44051,58309
44066,58321
44061,58295
44071,58313
44065,58301
44065,58319
44052,58299
44062,58320
44060,58312
44069,58329
44075,58316
44072,58325
44076,58316
44078,58319
44073,58330
44079,58332
44079,58339
44076,58338
44066,58321
44077,58337
44078,58334
44075,58348
44081,58341
44075,58333
44078,58345
44078,58347
44077,58360
44092,58361
44092,58342
44096,58348
44082,58368
44079,58364
44082,58373
44096,58364
44087,58362
44090,58371
44081,58374
44074,58367
44086,58371
44079,58337
44079,58326
44065,58331
44088,58312
44060,58295
44057,58295
44069,58294
44057,58286
44056,58284
44056,58287
44061,58291
44061,58295
44067,58315
44075,58300
44062,58310
44056,58311
44048,58301
44071,58310
44069,58298
44072,58297
44063,58311
44066,58300
44062,58285
44061,58283
44072,58290
44076,58285
44071,58273
44069,58289
44060,58282
44062,58291
44055,58282
44063,58284
44064,58278
44062,58291
44060,58262
44077,58284
44046,58287
44066,58294
44062,58290
44061,58301
44072,58281
44047,58284
44069,58289
44068,58285
44074,58272
44055,58299
44055,58298
44070,58299
44057,58286
44055,58315
44055,58315
44058,58292
44066,58273
44081,58295
44066,58283
44056,58287
44075,58305
44066,58322
44073,58317
44076,58310
44069,58302
44092,58308
44088,58331
44072,58318
44050,58340
44035,58317
44060,58262
44055,58332
44067,58320
44060,58327
44074,58322
44081,58340
44071,58329
44076,58321
44072,58331
44076,58325
44063,58335
44067,58333
44066,58330
44080,58337
44059,58340
44066,58346
44072,58361
44076,58326
44088,58341
44071,58341
44064,58352
44078,58352
44078,58363
44080,58355
44083,58367
44080,58355
44084,58366
44080,58365
44090,58360
44084,58368
44085,58375
44095,58362
44087,58378
44088,58376
44096,58371
44080,58382
44103,58376
44074,58373
44086,58392
44099,58395
44079,58392
44098,58389
44081,58389
44098,58392
44091,58397
44096,58385
44093,58398
44103,58427
44098,58407
44090,58402
44093,58396
44098,58414
44097,58411
44108,58411
44101,58411
44114,58419
44098,58407
44094,58426
44114,58436
44103,58411
44100,58421
44106,58421
44109,58427
44105,58425
44095,58430
44083,58413
44089,58394
44095,58396
44090,58366
44091,58359
44076,58357
44083,58344
44080,58349
44082,58341
44094,58353
44088,58351
44062,58357
44091,58354
44092,58362
44072,58358
44098,58377
44088,58355
44094,58363
44088,58381
44091,58380
44085,58355
44087,58350
44072,58350
44085,58340
44082,58336
44067,58351
44082,58352
44063,58336
44076,58343
44090,58340
44078,58360
44083,58363
44068,58352
44075,58358
44080,58361
44077,58352
44090,58364
44088,58347
44080,58356
44105,58354
44097,58362
44090,58345
44098,58323
44074,58356
44088,58354
44085,58349
44082,58357
44081,58363
44085,58353
44075,58360
44071,58356
44080,58348
44092,58371
44075,58354
44077,58370
44085,58344
44088,58365
44084,58373
44092,58365
44097,58368
44090,58368
44089,58372
44077,58359
44092,58366
44095,58371
44102,58380
44088,58378
44106,58380
44088,58377
44073,58369
44089,58380
44088,58386
44098,58388
44095,58387
44087,58386
44107,58382
44096,58385
44069,58386
44096,58381
44088,58388
44092,58377
44089,58379
44092,58393
44092,58405
44087,58386
44108,58405
44095,58391
44100,58405
44094,58409
44097,58411
44088,58408
44086,58405
44105,58411
44100,58418
44115,58414
44091,58422
44091,58411
44107,58415
44117,58421
44107,58418
44110,58426
44101,58439
44101,58426
44106,58440
44098,58428
44122,58434
44111,58439
44086,58433
44104,58447
44109,58445
44125,58439
44114,58447
44110,58453
44115,58442
44117,58456
44111,58444
44121,58453
44102,58456
44123,58442
44098,58466
44118,58439
44114,58443
44096,58465
44116,58453
44118,58464
44120,58465
44099,58445
44114,58447
44108,58427
44094,58403
44103,58409
44099,58392
44094,58391
44106,58393
44102,58382
44093,58375
44100,58384
44091,58391
44097,58399
44104,58395
44097,58392
44108,58395
44097,58406
44096,58395
44119,58393
44104,58398
44105,58403
44101,58384
44086,58342
44094,58365
44083,58382
44085,58387
44081,58358
44087,58351
44099,58380
44093,58363
44085,58379
44097,58393
44131,58396
44101,58384
44100,58386
44093,58375
44104,58387
44094,58396
44105,58401
44095,58415
44096,58371
44104,58380
44099,58374
44086,58372
44097,58372
44094,58372
44103,58389
44102,58387
44094,58377
44093,58373
44121,58381
44082,58383
44081,58381
44069,58393
44059,58388
44091,58395
44094,58396
44079,58393
44101,58396
44091,58394
44088,58406
44096,58398
44082,58394
44097,58397
44101,58392
44102,58385
44105,58395
44091,58410
44100,58406
44092,58394
44093,58417
44094,58411
44096,58401
44093,58407
44085,58404
44099,58415
44099,58408
44099,58416
44111,58408
44109,58413
44102,58405
44104,58424
44100,58415
44090,58403
44113,58422
44099,58419
44094,58430
44098,58425
44101,58436
44104,58411
44099,58428
44105,58427
44118,58443
44104,58427
44105,58435
44113,58454
44104,58437
44130,58431
44093,58426
44110,58437
44092,58440
44116,58457
44115,58443
44108,58454
44117,58446
44103,58443
44124,58460
44111,58454
44117,58452
44109,58458
44112,58475
44105,58454
44118,58468
44122,58479
44131,58467
44125,58482
44118,58468
44127,58479
44127,58479
44115,58486
44128,58476
44117,58495
44132,58472
44135,58493
44140,58498
44128,58512
44132,58510
44134,58510
44124,58487
44127,58507
44124,58500
44141,58503
44110,58496
44134,58501
44135,58521
44128,58511
44127,58492
44114,58476
44133,58460
44109,58454
44119,58445
44108,58433
44111,58428
44127,58419
44112,58428
44108,58431
44112,58436
44097,58443
44103,58449
44113,58444
44117,58449
44122,58446
44116,58461
44125,58462
44128,58462
44122,58462
44120,58439
44113,58441
44111,58435
44117,58427
44113,58440
44104,58423
44110,58425
44110,58430
44128,58436
44105,58424
44127,58431
44127,58450
44135,58450
44106,58443
44126,58453
44113,58449
44115,58449
44116,58433
44117,58457
44121,58444
44113,58433
44125,58456
44117,58443
44124,58444
44116,58447
44116,58444
44115,58448
44106,58445
44125,58454
44123,58441
44130,58449
44131,58452
44116,58462
44116,58456
44123,58446
44125,58441
44121,58452
44128,58485
44121,58475
44115,58469
44123,58484
44134,58477
44126,58454
44122,58465
44130,58471
44138,58477
44128,58477
44125,58480
44144,58476
44119,58473
44131,58475
44134,58486
44131,58492
44122,58479
44128,58474
44132,58489
44130,58501
44127,58477
44133,58484
44119,58496
44121,58492
44142,58500
44133,58491
44140,58510
44134,58486
44146,58497
44139,58518
44135,58514
44133,58509
44140,58502
44146,58506
44148,58519
44145,58510
44130,58504
44141,58507
44141,58518
44148,58527
44144,58535
44153,58520
44151,58525
44155,58530
44135,58529
44153,58529
44158,58546
44158,58557
44133,58538
44148,58532
44153,58543
44142,58549
44135,58529
44149,58542
44149,58544
44164,58556
44151,58557
44156,58549
44160,58551
44154,58567
44160,58552
44173,58574
44157,58572
44153,58562
44150,58577
44170,58574
44165,58562
44161,58566
44163,58567
44158,58542
44153,58526
44139,58540
44159,58512
44145,58506
44146,58538
44141,58506
44152,58501
44148,58510
44150,58509
44149,58511
44158,58516
44162,58512
44148,58537
44163,58529
44150,58529
44166,58534
44150,58545
44174,58527
44163,58533
44155,58558
44137,58543
44158,58560
44160,58510
44154,58519
44156,58509
44146,58522
44152,58540
44171,58546
44161,58545
44159,58545
44160,58547
44180,58558
44194,58550
44171,58569
44170,58554
44136,58557
44146,58538
44168,58574
44170,58578
44159,58548
44178,58553
44166,58556
44168,58553
44170,58558
44171,58561
44172,58556
44164,58561
44168,58579
44198,58575
44176,58564
44165,58575
44177,58570
44186,58572
44178,58570
44179,58565
44179,58581
44187,58580
44190,58577
44181,58588
44191,58598
44168,58583
44196,58600
44194,58587
44179,58602
44187,58600
44178,58594
44185,58596
44183,58607
44184,58609
44171,58598
44189,58600
44180,58614
44179,58616
44189,58605
44198,58597
44188,58620
44189,58620
44179,58619
44201,58615
44194,58623
44195,58615
44195,58622
44192,58625
44191,58620
44212,58644
44200,58621
44208,58634
44200,58640
44196,58644
44212,58645
44196,58638
44205,58644
44185,58651
44213,58647
44213,58651
44208,58634
44196,58632
44218,58648
44209,58644
44213,58665
44193,58656
44218,58657
44216,58671
44203,58659
44210,58680
44216,58680
44219,58675
44220,58673
44213,58682
44204,58661
44226,58670
44219,58683
44209,58695
44220,58677
44210,58693
44216,58707
44230,58690
44214,58701
44227,58693
44233,58699
44224,58704
44230,58696
44232,58708
44254,58702
44224,58692
44228,58711
44226,58714
44226,58705
44236,58710
44230,58726
44250,58719
44235,58710
44207,58673
44229,58663
44222,58689
44227,58650
44220,58658
44220,58650
44216,58638
44225,58652
44216,58653
44220,58662
44220,58638
44216,58658
44231,58667
44220,58681
44228,58671
44220,58677
44236,58687
44216,58684
44245,58677
44224,58690
44235,58678
44229,58671
44227,58697
44228,58656
44215,58656
44239,58684
44229,58679
44217,58683
44230,58657
44235,58690
44228,58687
44249,58690
44236,58681
44232,58683
44242,58700
44238,58698
44256,58709
44241,58713
44241,58678
44244,58695
44238,58700
44248,58706
44249,58684
44247,58705
44243,58701
44236,58711
44257,58699
44244,58713
44256,58710
44249,58701
44251,58714
44247,58705
44238,58717
44259,58714
44258,58719
44257,58707
44255,58730
44266,58713
44262,58721
44259,58730
44264,58726
44266,58737
44263,58724
44268,58717
44256,58730
44273,58743
44272,58730
44269,58744
44272,58746
44270,58749
44275,58727
44260,58740
44259,58738
44255,58734
44259,58734
44274,58734
44268,58754
44269,58756
44269,58749
44279,58765
44279,58746
44261,58751
44266,58757
44266,58759
44275,58756
44286,58761
44278,58760
44270,58771
44287,58763
44269,58763
44279,58756
44282,58766
44267,58771
44298,58767
44262,58776
44273,58784
44280,58781
44277,58783
44287,58771
44306,58779
44291,58784
44281,58788
44285,58777
44293,58779
44285,58791
44294,58793
44291,58790
44282,58780
44293,58790
44306,58800
44294,58796
44276,58793
44289,58806
44285,58801
44282,58798
44295,58807
44293,58805
44295,58797
44294,58811
44290,58805
44300,58814
44302,58805
44288,58820
44301,58813
44302,58811
44292,58801
44283,58781
44305,58783
44280,58771
44263,58755
44290,58741
44269,58741
44274,58770
44276,58776
44282,58727
44288,58729
44295,58779
44284,58760
44283,58773
44288,58769
44278,58765
44301,58768
44286,58771
44293,58777
44297,58755
44324,58772
44301,58754
44282,58756
44269,58768
44277,58763
44296,58776
44289,58764
44281,58774
44287,58765
44291,58768
44294,58775
44296,58783
44293,58776
44295,58773
44307,58787
44304,58787
44299,58782
44300,58793
44292,58795
44305,58784
44296,58774
44294,58765
44304,58781
44312,58788
44292,58799
44299,58787
44310,58786
44293,58769
44311,58798
44313,58782
44303,58798
44311,58778
44299,58799
44296,58800
44314,58794
44306,58799
44314,58814
44304,58811
44315,58814
44312,58793
44305,58814
44321,58803
44298,58812
44307,58801
44306,58812
44310,58821
44307,58804
44326,58817
44311,58818
44313,58807
44313,58810
44307,58808
44321,58811
44317,58807
44312,58813
44316,58818
44317,58811
44311,58819
44315,58818
44310,58810
44325,58829
44315,58820
44321,58824
44321,58829
44318,58817
44323,58827
44326,58831
44315,58823
44317,58841
44310,58834
44321,58839
44333,58831
44326,58836
44321,58828
44304,58844
44314,58828
44340,58826
44323,58851
44307,58856
44323,58839
44319,58847
44325,58847
44322,58841
44324,58861
44316,58845
44323,58841
44323,58841
44324,58810
44313,58813
44303,58801
44307,58789
44288,58777
44303,58781
44301,58782
44302,58788
44311,58783
44309,58777
44313,58785
44309,58772
44319,58777
44307,58785
44313,58797
44286,58792
44312,58793
44317,58777
44316,58790
44296,58767
44309,58773
44299,58774
44300,58773
44297,58748
44293,58749
44308,58757
44292,58764
44300,58770
44315,58763
44310,58765
44304,58780
44296,58789
44293,58776
44310,58790
44306,58777
44300,58776
44296,58785
44292,58779
44312,58782
44297,58778
44294,58783
44284,58764
44301,58753
44293,58762
44301,58758
44289,58769
44292,58752
44291,58758
44292,58760
44271,58766
44293,58772
44285,58780
44294,58764
44311,58781
44298,58772
44291,58774
44313,58755
44277,58758
44292,58754
44293,58765
44293,58771
44282,58764
44272,58766
44285,58760
44298,58760
44288,58755
44291,58762
44286,58766
44284,58772
44282,58757
44293,58756
44278,58764
44286,58765
44277,58776
44281,58757
44294,58754
44280,58781
44290,58767
44269,58756
44285,58755
44289,58769
44268,58766
44272,58762
44282,58782
44277,58769
44278,58769
44281,58775
44284,58767
44277,58767
44275,58773
44289,58770
44284,58768
44269,58758
44276,58757
44291,58779
44271,58782
44279,58765
44287,58761
44278,58768
44281,58776
44287,58792
44274,58774
44272,58769
44270,58804
44276,58779
44270,58805
44289,58779
44254,58779
44268,58778
44265,58775
44278,58778
44275,58784
44267,58773
44278,58783
44285,58782
44274,58783
44273,58783
44277,58787
44279,58797
44278,58788
44257,58786
44271,58795
44270,58781
44268,58775
44289,58793
44277,58779
44281,58791
44258,58792
44279,58798
44260,58805
44275,58805
44281,58799
44274,58785
44273,58797
44266,58807
44272,58782
44265,58771
44266,58743
44245,58751
44242,58730
44255,58725
44243,58696
44257,58708
44243,58707
44244,58701
44252,58730
44248,58721
44240,58702
44258,58706
44241,58711
44254,58686
44235,58708
44237,58714
44246,58704
44233,58708
44240,58675
44232,58667
44241,58676
44268,58698
44233,58674
44215,58661
44204,58676
44222,58658
44223,58662
44234,58678
44229,58687
44224,58684
44220,58696
44222,58677
44219,58682
44212,58679
44230,58658
44216,58685
44217,58657
44218,58666
44227,58674
44215,58669
44194,58658
44202,58657
44216,58658
44225,58656
44212,58669
44208,58645
44213,58631
44201,58652
44191,58643
44206,58657
44201,58659
44216,58665
44195,58669
44193,58661
44212,58652
44178,58653
44202,58652
44183,58653
44188,58654
44206,58648
44189,58662
44192,58665
44197,58656
44199,58645
44198,58646
44206,58664
44200,58641
44191,58663
44194,58643
44177,58637
44191,58634
44188,58647
44197,58644
44192,58647
44185,58653
44192,58652
44202,58642
44197,58639
44191,58656
44190,58649
44193,58656
44183,58647
44192,58651
44199,58660
44187,58646
44178,58652
44185,58651
44178,58665
44187,58649
44175,58649
44193,58666
44194,58673
44193,58649
44183,58663
44190,58648
44193,58662
44189,58654
44189,58660
44178,58646
44180,58658
44187,58653
44191,58674
44190,58660
44174,58669
44183,58650
44196,58672
44192,58675
44183,58663
44190,58648
44195,58684
44188,58659
44179,58669
44193,58677
44188,58674
44184,58668
44190,58683
44187,58681
44196,58681
44199,58678
44183,58688
44181,58682
44192,58678
44181,58682
44191,58676
44200,58668
44206,58685
44189,58704
44195,58701
44183,58688
44185,58673
44171,58660
44183,58635
44170,58635
44179,58639
44177,58612
44171,58613
44160,58609
44173,58607
44162,58601
44159,58606
44164,58618
44172,58615
44163,58614
44161,58618
44146,58619
44178,58618
44174,58607
44160,58623
44149,58612
44163,58593
44154,58595
44156,58593
44160,58592
44153,58581
44163,58588
44154,58576
44153,58586
44164,58579
44151,58588
44148,58586
44144,58580
44158,58599
44156,58593
44149,58606
44153,58590
44175,58605
44155,58595
44144,58605
44158,58592
44163,58584
44154,58585
44137,58587
44153,58593
44145,58589
44147,58574
44163,58586
44154,58589
44157,58575
44155,58600
44148,58588
44155,58595
44162,58589
44149,58592
44152,58611
44162,58602
44160,58602
44137,58598
44161,58592
44152,58601
44170,58595
44145,58611
44148,58609
44154,58606
44170,58610
44161,58614
44156,58605
44148,58610
44151,58596
44161,58608
44151,58607
44162,58598
44155,58611
44145,58598
44152,58615
44146,58611
44159,58618
44170,58606
44146,58624
44159,58616
44152,58621
44157,58611
44153,58615
44147,58618
44162,58620
44163,58627
44174,58626
44152,58617
44170,58628
44163,58645
44172,58624
44168,58632
44147,58632
44156,58630
44158,58642
44149,58649
44170,58635
44167,58639
44165,58650
44157,58635
44164,58645
44173,58663
44170,58650
44173,58654
44166,58648
44172,58655
44174,58665
44162,58637
44169,58656
44167,58667
44179,58650
44164,58660
44161,58663
44175,58659
44165,58651
44177,58670
44163,58659
44188,58676
44167,58667
44187,58660
44178,58677
44197,58676
44179,58681
44174,58669
44162,58675
44181,58688
44182,58703
44167,58693
44185,58683
44169,58637
44155,58638
44167,58621
44173,58631
44168,58618
44150,58630
44152,58616
44168,58612
44188,58612
44164,58615
44142,58619
44128,58606
44167,58667
44159,58642
44180,58643
44170,58632
44152,58636
44161,58627
44156,58624
44154,58620
44176,58615
44166,58604
44163,58614
44157,58608
44163,58603
44155,58618
44159,58592
44155,58619
44164,58616
44145,58610
44162,58618
44154,58622
44169,58621
44163,58624
44156,58626
44163,58609
44144,58619
44152,58640
44161,58628
44160,58630
44160,58634
44162,58620
44167,58624
44165,58618
44161,58621
44151,58624
44168,58633
44154,58621
44158,58633
44167,58645
44180,58614
44160,58633
44168,58635
44164,58641
44173,58627
44158,58642
44170,58624
44162,58651
44162,58641
44164,58632
44178,58647
44156,58635
44143,58652
44159,58647
44149,58629
44154,58657
44160,58645
44161,58650
44162,58640
44166,58630
44157,58642
44150,58663
44161,58658
44156,58645
44163,58653
44165,58650
44166,58670
44171,58665
44158,58663
44164,58643
44184,58664
44158,58666
44162,58658
44173,58656
44157,58648
44163,58658
44172,58670
44167,58652
44173,58677
44166,58654
44162,58676
44146,58669
44161,58657
44159,58671
44175,58686
44175,58674
44160,58678
44175,58680
44161,58686
44160,58686
44170,58682
44162,58687
44159,58674
44174,58686
44156,58680
44172,58670
44170,58682
44164,58683
44181,58685
44170,58680
44165,58685
44153,58690
44179,58687
44162,58678
44162,58659
44156,58656
44154,58651
44142,58617
44131,58628
44144,58653
44158,58618
44158,58642
44148,58628
44142,58661
44144,58641
44138,58659
44149,58645
44143,58635
44166,58648
44143,58633
44157,58629
44149,58632
44144,58631
44140,58628
44141,58632
44145,58626
44141,58609
44141,58612
44139,58629
44155,58617
44146,58631
44128,58628
44136,58630
44139,58619
44150,58638
44145,58638
44143,58649
44140,58636
44148,58650
44136,58624
44133,58629
44131,58631
44144,58645
44135,58611
44135,58638
44153,58630
44143,58636
44142,58635
44138,58625
44128,58621
44130,58629
44140,58628
44137,58608
44137,58629
44128,58630
44134,58623
44146,58644
44157,58628
44128,58619
44143,58620
44136,58636
44131,58619
44139,58631
44130,58627
44136,58618
44146,58637
44140,58628
44129,58632
44139,58640
44145,58644
44134,58635
44146,58636
44132,58637
44140,58638
44140,58636
44128,58638
44134,58636
44140,58643
44129,58640
44125,58634
44138,58644
44138,58655
44140,58647
44135,58647
44137,58655
44143,58646
44134,58647
44134,58655
44135,58655
44122,58662
44133,58661
44130,58657
44147,58661
44141,58668
44146,58661
44143,58660
44142,58652
44137,58668
44129,58670
44151,58674
44143,58667
44126,58666
44141,58683
44140,58682
44133,58659
44151,58670
44153,58683
44136,58684
44145,58672
44143,58683
44149,58685
44137,58683
44148,58685
44147,58666
44144,58668
44146,58650
44130,58631
44137,58646
44143,58622
44140,58640
44128,58631
44126,58608
44123,58625
44135,58632
44115,58620
44145,58620
44139,58651
44126,58634
44127,58651
44137,58627
44122,58645
44117,58643
44120,58611
44130,58591
44120,58614
44118,58595
44126,58603
44126,58604
44110,58595
44116,58612
44136,58617
44129,58622
44140,58620
44135,58622
44138,58611
44123,58628
44089,58612
44098,58608
44119,58621
44115,58614
44120,58619
44112,58620
44119,58612
44112,58603
44117,58609
44136,58607
44124,58622
44122,58613
44127,58618
44125,58620
44114,58616
44124,58622
44125,58630
44127,58620
44124,58638
44117,58622
44114,58622
44118,58632
44115,58620
44124,58626
44117,58624
44131,58633
44112,58612
44131,58634
44126,58631
44124,58630
44116,58625
44100,58648
44127,58622
44116,58637
44124,58641
44129,58641
44108,58639
44134,58644
44131,58625
44118,58645
44116,58632
44128,58638
44130,58634
44124,58642
44118,58649
44137,58647
44116,58634
44124,58655
44111,58651
44132,58652
44141,58646
44115,58657
44137,58648
44124,58649
44127,58644
44131,58650
44120,58665
44118,58661
44124,58677
44125,58676
44124,58661
44136,58663
44115,58662
44122,58680
44127,58657
44126,58654
44132,58678
44132,58655
44128,58679
44117,58672
44130,58685
44136,58685
44154,58686
44138,58680
44148,58692
44137,58686
44141,58678
44133,58690
44144,58689
44131,58666
44148,58676
44134,58679
44147,58685
44146,58685
44131,58679
44143,58677
44138,58674
44138,58657
44128,58641
44130,58650
44127,58638
44128,58637
44124,58616
44122,58639
44120,58635
44118,58640
44124,58642
44114,58632
44133,58635
44117,58646
44130,58645
44120,58636
44116,58628
44133,58625
44120,58625
44108,58619
44125,58618
44117,58622
44113,58614
44100,58629
44098,58615
44115,58607
44112,58624
44111,58608
44117,58617
44099,58609
44108,58617
44122,58629
44124,58615
44123,58621
44105,58621
44112,58627
44122,58602
44124,58626
44117,58623
44110,58608
44123,58624
44113,58598
44103,58628
44120,58616
44112,58623
44111,58631
44114,58618
44113,58641
44100,58621
44110,58643
44113,58626
44118,58636
44122,58633
44117,58632
44108,58629
44114,58632
44134,58634
44115,58624
44122,58628
44132,58626
44129,58631
44122,58643
44119,58636
44125,58637
44120,58640
44124,58640
44109,58635
44117,58632
44132,58643
44123,58629
44129,58649
44121,58642
44137,58642
44129,58640
44108,58639
44127,58645
44119,58641
44111,58636
44123,58629
44111,58634
44115,58651
44108,58652
44118,58649
44120,58648
44128,58638
44134,58655
44107,58643
44131,58648
44113,58652
44140,58660
44121,58647
44124,58657
44121,58652
44137,58664
44129,58646
44127,58650
44124,58653
44135,58674
44132,58658
44142,58661
44133,58675
44135,58666
44150,58688
44126,58668
44131,58669
44132,58669
44132,58666
44138,58650
44132,58664
44126,58642
44128,58623
44121,58627
44107,58617
44120,58618
44114,58614
44130,58612
44126,58628
44119,58600
44120,58614
44118,58615
44122,58624
44117,58609
44120,58618
44123,58619
44111,58601
44111,58597
44114,58591
44117,58592
44098,58612
44116,58586
44109,58581
44121,58596
44104,58591
44100,58564
44111,58612
44119,58593
44117,58614
44106,58601
44122,58603
44114,58611
44121,58617
44118,58604
44131,58609
44139,58610
44113,58614
44124,58599
44114,58626
44135,58623
44112,58599
44094,58566
44100,58571
44117,58567
44108,58595
44104,58602
44117,58597
44102,58597
44116,58602
44099,58594
44137,58618
44125,58595
44146,58611
44103,58601
44119,58611
44102,58599
44104,58623
44104,58619
44132,58615
44113,58619
44117,58615
44126,58625
44111,58608
44120,58614
44115,58624
44116,58615
44123,58620
44119,58634
44130,58609
44110,58623
44132,58618
44120,58624
44138,58628
44124,58646
44133,58627
44136,58633
44118,58614
44127,58627
44116,58633
44122,58630
44114,58626
44120,58624
44144,58647
44116,58641
44134,58638
44126,58635
44134,58651
44141,58641
44133,58632
44123,58642
44123,58648
44150,58651
44135,58651
44139,58655
44142,58648
44135,58660
44138,58656
44132,58661
44130,58650
44131,58663
44142,58650
44148,58667
44136,58670
44133,58661
44137,58632
44131,58655
44124,58637
44146,58666
44157,58678
44142,58679
44152,58671
44153,58681
44152,58672
44146,58677
44155,58677
44160,58693
44153,58685
44152,58686
44163,58702
44153,58679
44141,58677
44148,58687
44155,58659
44148,58651
44143,58628
44132,58625
44141,58606
44136,58610
44131,58607
44126,58626
44143,58618
44117,58610
44138,58607
44144,58611
44150,58620
44132,58623
44130,58630
44135,58615
44139,58622
44127,58608
44138,58616
44145,58618
44137,58600
44118,58605
44122,58607
44118,58593
44127,58592
44125,58587
44134,58593
44122,58588
44128,58603
44128,58631
44124,58614
44134,58614
44133,58594
44138,58601
44136,58613
44124,58619
44141,58592
44129,58593
44125,58606
44129,58596
44132,58594
44123,58585
44133,58604
44129,58588
44114,58590
44134,58606
44125,58586
44134,58594
44126,58590
44119,58598
44121,58591
44115,58627
44115,58588
44123,58600
44131,58596
44148,58604
44121,58600
44114,58613
44120,58599
44115,58595
44123,58613
44132,58615
44128,58591
44126,58612
44130,58601
44129,58607
44121,58605
44145,58585
44125,58611
44125,58594
44118,58619
44132,58607
44138,58600
44133,58602
44135,58615
44134,58619
44127,58622
44132,58618
44138,58614
44126,58600
44142,58624
44122,58616
44115,58615
44132,58640
44132,58633
44123,58617
44130,58622
44137,58621
44125,58624
44127,58605
44124,58633
44122,58623
44143,58630
44126,58624
44122,58632
44125,58619
44124,58606
44136,58601
44113,58606
44118,58572
44130,58562
44126,58550
44112,58554
44107,58550
44112,58552
44111,58550
44105,58558
44117,58553
44120,58549
44106,58552
44109,58549
44111,58552
44110,58565
44124,58538
44111,58534
44096,58536
44104,58528
44115,58532
44096,58534
44102,58514
44091,58505
44094,58498
44102,58500
44078,58500
44087,58516
44092,58503
44099,58504
44093,58510
44101,58493
44092,58509
44082,58517
44082,58509
44092,58498
44086,58506
44089,58497
44087,58510
44082,58483
44069,58487
44077,58488
44084,58486
44084,58495
44085,58483
44077,58482
44079,58488
44073,58477
44077,58478
44078,58474
44081,58484
44062,58503
44072,58490
44081,58476
44091,58478
44076,58473
44077,58490
44071,58474
44083,58479
44083,58475
44080,58474
44072,58475
44084,58494
44074,58476
44088,58475
44082,58514
44061,58482
44089,58499
44081,58523
44081,58510
44088,58493
44087,58460
44095,58479
44092,58483
44086,58512
44090,58504
44083,58508
44089,58485
44109,58500
44102,58510
44096,58508
44116,58510
44089,58509
44065,58515
44069,58508
44088,58515
44095,58505
44098,58496
44079,58506
44081,58513
44094,58507
44102,58523
44100,58521
44102,58529
44109,58525
44106,58516
44094,58533
44091,58545
44109,58524
44101,58524
44109,58531
44114,58527
44112,58542
44113,58545
44107,58545
44092,58543
44117,58554
44112,58538
44124,58547
44108,58538
44112,58534
44101,58556
44113,58565
44116,58554
44117,58550
44123,58560
44106,58554
44128,58562
44108,58562
44122,58551
44132,58565
44137,58577
44110,58567
44132,58575
44122,58575
44123,58575
44102,58565
44108,58551
44110,58532
44106,58530
44107,58517
44109,58513
44102,58478
44110,58488
44092,58489
44110,58484
44091,58481
44103,58471
44095,58465
44094,58469
44095,58472
44104,58470
44091,58474
44094,58473
44096,58489
44102,58480
44090,58474
44103,58483
44087,58461
44100,58465
44093,58462
44084,58459
44085,58445
44099,58437
44093,58447
44096,58454
44086,58454
44074,58447
44094,58446
44096,58435
44096,58438
44083,58457
44087,58436
44088,58455
44098,58448
44113,58462
44080,58451
44096,58437
44091,58436
44081,58435
44095,58441
44070,58433
44087,58431
44090,58430
44087,58428
44086,58431
44085,58421
44084,58425
44093,58433
44084,58438
44085,58431
44080,58429
44085,58425
44091,58417
44079,58431
44093,58435
44099,58438
44091,58446
44099,58435
44070,58429
44100,58450
44084,58441
44088,58439
44074,58439
44089,58432
44087,58450
44077,58422
44086,58450
44069,58437
44086,58421
44082,58437
44075,58426
44084,58431
44093,58453
44092,58434
44087,58433
44075,58452
44098,58459
44098,58445
44086,58444
44101,58449
44077,58453
44098,58449
44083,58449
44094,58445
44094,58450
44099,58457
44109,58447
44110,58452
44092,58453
44087,58455
44102,58444
44108,58453
44091,58462
44102,58458
44096,58474
44089,58461
44092,58472
44090,58455
44110,58460
44090,58464
44087,58471
44099,58463
44091,58451
44099,58443
44100,58424
44078,58418
44089,58396
44085,58401
44083,58382
44086,58378
44085,58375
44074,58391
44077,58372
44083,58367
44062,58362
44083,58359
44060,58374
44073,58352
44084,58368
44067,58352
44068,58351
44072,58351
44058,58349
44068,58351
44062,58332
44068,58331
44062,58342
44050,58315
44070,58320
44064,58303
44060,58315
44050,58317
44048,58308
44062,58319
44060,58322
44047,58318
44069,58328
44042,58315
44067,58321
44060,58320
44053,58312
44064,58318
44069,58314
44034,58308
44057,58306
44055,58307
44045,58304
44048,58291
44041,58299
44061,58280
44048,58293
44047,58292
44052,58294
44053,58305
44037,58299
44044,58300
44065,58306
44074,58304
44047,58310
44059,58302
44052,58289
44049,58290
44053,58304
44045,58315
44055,58314
44060,58331
44070,58314
44059,58295
44064,58308
44066,58300
44065,58305
44061,58316
44042,58311
44074,58305
44068,58297
44068,58324
44059,58317
44056,58321
44070,58317
44064,58315
44029,58312
44056,58310
44065,58348
44082,58350
44065,58360
44067,58292
44079,58291
44059,58324
44069,58324
44079,58333
44056,58337
44080,58327
44068,58338
44072,58337
44064,58341
44089,58342
44076,58344
44057,58324
44027,58317
44071,58303
44069,58292
44057,58288
44051,58269
44048,58262
44047,58247
44034,58241
44052,58222
44053,58225
44051,58223
44047,58238
44055,58232
44049,58222
44039,58233
44047,58219
44039,58231
44028,58209
44052,58219
44036,58211
44029,58205
44036,58218
44037,58194
44036,58194
44023,58183
44018,58198
44019,58178
44030,58185
44022,58186
44042,58183
44020,58179
44029,58190
44030,58188
44038,58172
44041,58191
44029,58174
44027,58184
44042,58183
44022,58173
44038,58183
44008,58168
44026,58166
44028,58168
44040,58163
44017,58162
44023,58178
44040,58167
44016,58164
44033,58174
44021,58182
44024,58159
44023,58165
44038,58169
44026,58168
44032,58183
44038,58171
44025,58171
44027,58188
44023,58185
44042,58191
44028,58178
44046,58174
44025,58173
44037,58183
44039,58182
44033,58179
44035,58179
44036,58173
44025,58193
44053,58177
44030,58191
44026,58184
44026,58182
44042,58178
44033,58196
44038,58201
44038,58200
44047,58205
44032,58206
44043,58200
44067,58211
44034,58206
44046,58206
44049,58198
44057,58210
44055,58200
44034,58222
44050,58225
44052,58221
44035,58230
44040,58218
44062,58221
44052,58203
44062,58234
44049,58226
44042,58230
44059,58223
44065,58229
44053,58242
44054,58230
44068,58229
44059,58248
44055,58244
44052,58244
44061,58241
44059,58249
44059,58246
44073,58249
44067,58243
44060,58267
44063,58257
44073,58274
44065,58261
44073,58249
44072,58245
44039,58238
44054,58240
44053,58190
44042,58198
44037,58174
44049,58166
44038,58164
44034,58154
44037,58168
44042,58145
44033,58147
44027,58159
44027,58146
44021,58148
44036,58164
44034,58154
44026,58156
44037,58167
44013,58157
44030,58129
44022,58131
44038,58135
44019,58125
44036,58126
44008,58142
44031,58122
44030,58120
44031,58129
44009,58128
44031,58128
44012,58137
44031,58134
44023,58120
44022,58136
44016,58144
44025,58139
44016,58135
44022,58129
44021,58128
44022,58136
44017,58127
44022,58128
44032,58135
44018,58128
44017,58131
44024,58133
44014,58117
44030,58125
44024,58135
44019,58126
44019,58132
44021,58128
44040,58121
44036,58137
44012,58141
44023,58129
44029,58140
44039,58143
44031,58150
44032,58137
44054,58139
44023,58149
44039,58141
44024,58140
44020,58138
44028,58152
44023,58150
44038,58159
44028,58158
44034,58152
44043,58161
44053,58160
44041,58160
44039,58142
44050,58152
44036,58154
44043,58165
44029,58175
44032,58167
44044,58166
44041,58173
44044,58168
44031,58181
44043,58169
44035,58172
44054,58179
44045,58192
44043,58201
44039,58193
44050,58181
44049,58189
44056,58201
44039,58202
44042,58206
44036,58202
44040,58212
44050,58204
44072,58244
44050,58211
44042,58214
44049,58229
44054,58195
44035,58171
44023,58151
44029,58149
44012,58120
44028,58131
44027,58116
44009,58116
44005,58112
44020,58108
44009,58099
43991,58115
44009,58119
44028,58106
44008,58135
44017,58139
44008,58078
44021,58086
44027,58091
44012,58108
44010,58102
44002,58097
43996,58092
44014,58096
44021,58071
44001,58099
44036,58078
44004,58076
43998,58089
44050,58211
43997,58095
44009,58088
44007,58083
44005,58097
44009,58091
44002,58088
44005,58090
44022,58085
44015,58092
44012,58080
44016,58100
44013,58097
43998,58071
44009,58084
44013,58091
44010,58073
44003,58079
44007,58065
44010,58084
44013,58082
44022,58076
44020,58096
43999,58081
44004,58081
44007,58105
44009,58109
43998,58100
44019,58106
44021,58095
44027,58112
44016,58098
44025,58114
44019,58115
44029,58112
44009,58112
44026,58124
44013,58118
44023,58117
44008,58120
44013,58110
44016,58131
44024,58130
44027,58132
44021,58132
44011,58143
44016,58124
44021,58129
44026,58144
44021,58129
44011,58138
44026,58150
44017,58154
44017,58142
44029,58147
44023,58154
44019,58155
44030,58156
44046,58152
44045,58161
44027,58159
44016,58167
44020,58166
44014,58164
44023,58171
44046,58191
44031,58188
44030,58196
44024,58172
44034,58183
44045,58191
44043,58179
44033,58194
44047,58201
44018,58196
44032,58209
44035,58194
44037,58203
44039,58208
44038,58216
44035,58212
44042,58217
44049,58239
44052,58225
44055,58239
44035,58230
44038,58217
44028,58196
44043,58189
44036,58185
44020,58168
44026,58157
44022,58159
44018,58132
44012,58129
44009,58144
44009,58134
44020,58142
44035,58144
44014,58145
44014,58138
44012,58138
44017,58136
44027,58153
44020,58153
44017,58155
44032,58140
44020,58133
43995,58140
44012,58146
44017,58133
44005,58133
44003,58129
44018,58151
44004,58132
44023,58131
44003,58148
44017,58133
43997,58129
44020,58132
44021,58138
44011,58140
44017,58140
44004,58159
44013,58148
44032,58135
44026,58127
44000,58127
44029,58145
44015,58124
44011,58142
44000,58146
44015,58137
44020,58132
44004,58134
44009,58133
44022,58139
44000,58138
44028,58134
44006,58146
44007,58138
44004,58146
43997,58144
44013,58140
44023,58139
44010,58149
44019,58139
44010,58152
44016,58152
44011,58159
44003,58156
44013,58161
44016,58160
44014,58169
44019,58168
44017,58178
44013,58165
44027,58169
44008,58178
44015,58166
44012,58170
44017,58178
44026,58168
44011,58168
44027,58179
44022,58185
44021,58196
44024,58191
44035,58187
44038,58201
44017,58187
44028,58194
44023,58192
44016,58196
44029,58195
44015,58203
44022,58188
44026,58195
44032,58215
44024,58214
44021,58220
44045,58220
44022,58227
44037,58215
44035,58220
44048,58204
44015,58210
44018,58199
44033,58171
44016,58165
44004,58157
44007,58152
43993,58137
44007,58131
44002,58132
44005,58127
44016,58122
44004,58125
44006,58138
43989,58123
43991,58124
44009,58136
44005,58146
44026,58134
44003,58133
43987,58135
44005,58123
44006,58128
43985,58117
43998,58094
43994,58113
43993,58106
43999,58080
43991,58098
43990,58088
43987,58095
43988,58097
43993,58128
43983,58113
44010,58129
43993,58127
43989,58105
44016,58116
43986,58102
44012,58112
44001,58129
44000,58118
44003,58138
43995,58105
43989,58062
43999,58082
43983,58126
43977,58109
43989,58110
43989,58119
43990,58123
43994,58122
43991,58118
44019,58115
44025,58121
44001,58135
43998,58115
43994,58113
43985,58113
43979,58127
43997,58141
44001,58129
44006,58123
43993,58142
44009,58134
43990,58137
43988,58137
44007,58129
44000,58126
43996,58132
44002,58143
43998,58138
44001,58140
44009,58133
43996,58135
44005,58158
44012,58152
44008,58155
44007,58145
44006,58162
43997,58145
43999,58150
44012,58157
44005,58150
44005,58152
44006,58181
44001,58165
44017,58170
44002,58168
44007,58153
44001,58185
44026,58171
44029,58182
44025,58168
44012,58182
44011,58190
44013,58193
44012,58187
44019,58185
44011,58195
44010,58192
44011,58194
44009,58217
44000,58204
44006,58205
44025,58196
44019,58209
44009,58209
44024,58206
44018,58216
44022,58219
44008,58219
44005,58194
44003,58185
44016,58166
43997,58156
43996,58155
44002,58150
43989,58141
43991,58126
43996,58113
43978,58118
43994,58113
43996,58125
43990,58112
43987,58114
43991,58125
43987,58114
43983,58118
43991,58121
43992,58118
43981,58131
43996,58115
43994,58112
43985,58116
43983,58091
43990,58110
43973,58101
43973,58112
43976,58096
43980,58096
43984,58095
43984,58101
43963,58110
43977,58103
43983,58112
43982,58104
43979,58102
43971,58108
43982,58114
43966,58122
43979,58103
43977,58104
44000,58107
43997,58105
43987,58101
43969,58091
43975,58085
43977,58094
43973,58095
43973,58107
43978,58099
43973,58123
43988,58095
43975,58107
43988,58105
43978,58108
43970,58106
43972,58111
43975,58100
43978,58108
43977,58102
43983,58121
43982,58117
43983,58120
43991,58137
43989,58132
43985,58120
43994,58118
43985,58122
43985,58114
43970,58117
43981,58112
43983,58122
43984,58129
43992,58111
43991,58130
43983,58133
43983,58130
43979,58130
43980,58125
43990,58134
43967,58130
43994,58141
43993,58149
43983,58141
43998,58132
43980,58149
43981,58142
43988,58150
43985,58148
43990,58156
43988,58162
43983,58162
43994,58156
43982,58155
43990,58158
43998,58160
44010,58153
43996,58174
44002,58181
43996,58166
43988,58164
43997,58174
44001,58175
43988,58173
43994,58176
43988,58175
44025,58184
43988,58201
44002,58197
44009,58174
43991,58160
43998,58138
44000,58129
43973,58131
43971,58102
43972,58093
43964,58094
43982,58084
43968,58089
43969,58073
43967,58087
43970,58078
43969,58080
43964,58081
43958,58078
43973,58069
43965,58071
43972,58081
43978,58059
43960,58066
43972,58066
43958,58068
43946,58061
43969,58062
43961,58072
43961,58055
43963,58036
43958,58065
43964,58060
43956,58048
43946,58054
43956,58059
43952,58044
43953,58043
43949,58051
43941,58071
43968,58064
43953,58068
43949,58045
43952,58051
43942,58053
43936,58047
43948,58047
43938,58031
43949,58046
43954,58043
43949,58046
43942,58045
43954,58037
43943,58045
43957,58021
43954,58030
43943,58039
43960,58054
43958,58037
43959,58034
43961,58039
43956,58056
43937,58054
43959,58044
43930,58049
43959,58058
43957,58055
43949,58090
43958,58083
43949,58036
43953,58027
43951,58031
43959,58044
43956,58060
43953,58070
43952,58080
43956,58074
43976,58068
43968,58066
43988,58060
43965,58063
43936,58085
43949,58046
43947,58080
43965,58067
43956,58069
43966,58080
43977,58084
43959,58090
43956,58087
43972,58085
43957,58092
43967,58099
43968,58106
43956,58104
43970,58117
43947,58105
43966,58093
43967,58094
43977,58096
43976,58105
43969,58108
43964,58120
43954,58109
43963,58119
43967,58118
43971,58112
43972,58107
43958,58108
43959,58100
43961,58065
43951,58051
43938,58040
43929,58012
43926,58011
43926,58014
43934,57987
43928,57998
43927,57990
43927,57992
43917,57979
43921,57989
43933,57976
43936,57966
43920,57981
43924,57963
43923,57959
43917,57973
43929,57971
43920,57970
43933,57944
43904,57937
43896,57955
43906,57937
43920,57922
43902,57937
43902,57941
43914,57919
43900,57920
43908,57919
43904,57921
43898,57911
43891,57932
43910,57921
43889,57926
43901,57916
43911,57932
43889,57909
43910,57926
43913,57925
43901,57905
43902,57921
43906,57895
43903,57906
43898,57897
43902,57911
43916,57899
43890,57888
43903,57899
43897,57902
43902,57895
43903,57892
43895,57903
43899,57893
43894,57914
43902,57909
43898,57907
43903,57926
43898,57908
43910,57897
43899,57907
43899,57905
43907,57914
43904,57915
43906,57923
43904,57911
43926,57915
43909,57914
43912,57930
43902,57928
43901,57919
43910,57929
43910,57934
43906,57940
43905,57927
43923,57939
43916,57936
43905,57932
43909,57923
43913,57930
43917,57933
43906,57947
43920,57944
43914,57939
43902,57940
43924,57945
43924,57930
43915,57968
43910,57941
43907,57961
43919,57955
43924,57955
43918,57966
43917,57958
43938,57978
43937,57984
43935,57978
43942,57968
43927,57969
43925,57993
43914,57968
43935,57989
43911,57975
43922,57986
43926,57982
43915,57993
43924,57985
43929,57999
43935,57989
43931,58007
43924,57992
43933,57972
43922,57973
43916,57946
43905,57937
43893,57933
43882,57905
43883,57886
43884,57859
43885,57872
43877,57858
43883,57873
43881,57859
43876,57848
43882,57854
43872,57838
43882,57859
43860,57858
43863,57847
43880,57833
43871,57826
43869,57850
43862,57837
43870,57824
43889,57824
43879,57825
43866,57816
43870,57813
43851,57792
43863,57816
43871,57799
43862,57814
43861,57790
43866,57799
43866,57802
43845,57821
43860,57803
43860,57796
43871,57796
43858,57804
43847,57795
43854,57791
43859,57785
43863,57780
43865,57763
43855,57792
43858,57797
43857,57771
43855,57779
43854,57774
43849,57793
43850,57777
43848,57766
43846,57773
43864,57781
43851,57777
43862,57782
43869,57772
43862,57765
43856,57775
43852,57776
43858,57784
43874,57774
43856,57786
43861,57774
43873,57789
43852,57779
43869,57777
43871,57775
43871,57797
43868,57787
43859,57792
43869,57786
43853,57783
43861,57764
43872,57798
43867,57811
43875,57802
43864,57798
43863,57803
43881,57809
43854,57812
43866,57808
43871,57806
43911,57802
43881,57832
43881,57837
43874,57820
43869,57837
43877,57848
43863,57826
43870,57819
43866,57808
43885,57857
43866,57833
43878,57835
43880,57842
43867,57844
43874,57841
43877,57831
43880,57817
43878,57800
43862,57786
43838,57764
43797,57744
43811,57732
43821,57716
43825,57698
43819,57701
43822,57680
43817,57679
43821,57687
43817,57684
43819,57677
43808,57671
43799,57678
43811,57672
43815,57647
43814,57668
43801,57633
43805,57642
43812,57629
43791,57622
43783,57615
43791,57612
43790,57604
43794,57587
43774,57599
43776,57606
43789,57600
43775,57580
43780,57588
43781,57598
43782,57594
43790,57592
43779,57596
43770,57590
43790,57609
43774,57602
43781,57584
43769,57585
43798,57584
43766,57571
43769,57558
43779,57583
43758,57572
43769,57570
43783,57582
43774,57567
43761,57570
43779,57576
43777,57570
43792,57572
43775,57566
43772,57570
43776,57564
43786,57564
43770,57597
43773,57578
43781,57583
43781,57581
43781,57576
43777,57585
43775,57584
43767,57578
43779,57579
43775,57581
43773,57593
43780,57589
43782,57603
43788,57594
43783,57596
43778,57596
43789,57593
43773,57610
43771,57601
43767,57608
43784,57607
43787,57608
43793,57610
43781,57609
43776,57609
43764,57613
43788,57620
43772,57623
43782,57628
43796,57622
43778,57639
43783,57631
43792,57642
43796,57636
43784,57634
43781,57649
43781,57643
43788,57632
43776,57649
43777,57654
43776,57659
43782,57649
43779,57676
43790,57669
43779,57672
43785,57696
43798,57670
43797,57678
43789,57679
43771,57683
43774,57686
43776,57688
43781,57704
43791,57699
43779,57701
43796,57701
43767,57694
43779,57672
43771,57665
43758,57641
43758,57608
43745,57584
43742,57575
43736,57574
43722,57552
43725,57556
43726,57545
43729,57539
43727,57535
43707,57533
43725,57539
43718,57531
43720,57518
43710,57515
43715,57506
43722,57503
43711,57510
43708,57502
43717,57497
43705,57491
43700,57491
43714,57469
43690,57463
43695,57467
43698,57467
43711,57452
43699,57468
43700,57486
43699,57456
43701,57473
43701,57461
43698,57455
43715,57475
43692,57452
43695,57467
43700,57455
43695,57461
43702,57464
43714,57472
43700,57449
43685,57445
43704,57435
43706,57435
43698,57434
43686,57428
43693,57435
43694,57429
43681,57435
43686,57424
43692,57444
43687,57433
43714,57431
43696,57433
43703,57436
43695,57428
43690,57443
43688,57443
43697,57446
43697,57439
43698,57457
43700,57452
43702,57455
43683,57449
43711,57448
43688,57464
43682,57475
43687,57432
43694,57441
43694,57457
43691,57462
43701,57458
43693,57459
43687,57469
43701,57462
43705,57469
43696,57463
43693,57470
43695,57472
43699,57473
43691,57482
43690,57474
43702,57468
43695,57476
43694,57485
43702,57500
43694,57494
43706,57485
43701,57493
43705,57495
43694,57491
43703,57500
43694,57514
43699,57519
43695,57499
43697,57510
43699,57511
43685,57503
43697,57551
43706,57515
43703,57530
43711,57535
43699,57525
43705,57508
43697,57544
43703,57515
43688,57511
43675,57499
43681,57497
43681,57462
43678,57449
43662,57442
43648,57398
43637,57383
43652,57364
43659,57388
43643,57388
43652,57408
43640,57325
43635,57317
43631,57341
43636,57340
43652,57342
43633,57346
43623,57336
43629,57315
43638,57311
43620,57300
43653,57290
43620,57291
43594,57294
43706,57515
43604,57286
43621,57277
43620,57255
43619,57279
43616,57275
43625,57264
43617,57263
43610,57274
43629,57266
43613,57267
43599,57266
43606,57258
43625,57262
43603,57266
43607,57254
43607,57268
43590,57244
43601,57246
43600,57227
43601,57240
43600,57242
43599,57218
43608,57227
43596,57241
43606,57228
43603,57247
43608,57221
43589,57240
43608,57240
43602,57237
43595,57230
43595,57242
43593,57254
43594,57228
43598,57237
43605,57250
43590,57248
43609,57233
43597,57262
43590,57247
43599,57238
43590,57260
43600,57259
43585,57256
43601,57261
43591,57263
43591,57270
43599,57258
43588,57274
43591,57272
43584,57289
43590,57263
43601,57274
43607,57279
43578,57273
43593,57278
43579,57284
43601,57309
43611,57278
43593,57288
43596,57297
43600,57296
43596,57309
43600,57308
43594,57305
43586,57309
43589,57307
43586,57327
43586,57323
43597,57313
43596,57334
43605,57337
43596,57339
43599,57342
43603,57346
43611,57333
43602,57341
43605,57354
43605,57351
43614,57352
43594,57365
43616,57350
43592,57356
43614,57356
43603,57371
43614,57363
43595,57368
43596,57382
43605,57352
43589,57333
43604,57301
43592,57308
43566,57267
43566,57268
43579,57234
43547,57219
43552,57212
43539,57209
43562,57192
43528,57172
43537,57166
43538,57166
43536,57172
43545,57159
43535,57172
43538,57156
43539,57154
43553,57160
43543,57135
43540,57139
43538,57141
43548,57114
43528,57122
43535,57119
43523,57097
43523,57093
43537,57096
43543,57076
43522,57091
43541,57078
43535,57100
43535,57079
43531,57071
43528,57075
43532,57084
43546,57074
43535,57075
43540,57074
43544,57072
43537,57059
43527,57071
43530,57057
43533,57060
43541,57060
43544,57062
43541,57060
43550,57057
43539,57062
43540,57043
43547,57056
43528,57029
43550,57043
43550,57062
43529,57053
43534,57049
43543,57058
43531,57068
43540,57069
43544,57051
43539,57053
43536,57039
43541,57061
43534,57071
43549,57069
43536,57077
43550,57074
43546,57059
43531,57059
43547,57064
43541,57064
43538,57061
43535,57076
43547,57073
43523,57089
43554,57101
43540,57088
43549,57111
43546,57107
43568,57092
43545,57097
43551,57106
43555,57113
43541,57111
43546,57105
43544,57120
43552,57111
43558,57120
43538,57130
43553,57142
43564,57124
43557,57113
43563,57127
43571,57133
43567,57138
43567,57113
43566,57139
43576,57138
43573,57148
43584,57146
43570,57140
43567,57158
43576,57149
43568,57166
43580,57171
43599,57164
43576,57171
43583,57195
43589,57187
43589,57169
43585,57179
43581,57196
43589,57186
43596,57204
43591,57199
43601,57210
43590,57194
43603,57175
43594,57153
43571,57144
43578,57102
43576,57079
43566,57102
43561,57035
43563,57027
43559,57012
43558,57006
43566,56993
43555,56999
43536,56979
43545,56989
43548,56974
43541,56995
43551,56967
43552,56975
43547,56961
43538,56960
43541,56954
43558,56954
43548,56962
43563,56965
43561,56956
43560,56908
43579,56910
43560,56920
43558,56915
43557,56926
43559,56937
43562,56919
43571,56933
43583,56920
43568,56917
43579,56904
43584,56925
43536,56915
43553,56920
43558,56916
43578,56897
43573,56886
43556,56889
43563,56891
43568,56885
43560,56890
43576,56909
43582,56889
43571,56890
43570,56887
43577,56896
43584,56906
43570,56898
43581,56922
43582,56899
43582,56902
43590,56906
43590,56906
43590,56908
43602,56896
43578,56915
43590,56905
43585,56915
43596,56917
43613,56922
43607,56928
43610,56928
43601,56935
43607,56929
43598,56934
43601,56945
43620,56938
43615,56933
43613,56950
43616,56947
43618,56938
43630,56958
43626,56936
43638,56939
43627,56942
43633,56956
43615,56953
43623,56968
43636,56973
43654,56978
43632,56965
43651,56980
43637,56981
43653,56981
43648,56985
43663,56999
43644,57001
43641,56983
43660,57005
43661,57017
43648,57010
43670,57013
43663,57021
43683,57011
43680,57025
43682,57031
43689,57033
43665,57028
43689,57025
43680,57038
43701,57035
43687,57030
43695,57057
43700,57058
43688,57053
43699,57049
43691,57039
43684,57016
43683,57001
43679,56979
43684,56945
43667,56920
43657,56915
43664,56900
43665,56872
43646,56863
43666,56854
43658,56840
43660,56826
43653,56832
43656,56829
43650,56826
43666,56832
43656,56829
43660,56815
43658,56810
43667,56806
43651,56803
43656,56780
43647,56777
43655,56776
43675,56747
43652,56760
43671,56762
43652,56742
43671,56742
43672,56746
43657,56745
43659,56739
43677,56737
43682,56740
43655,56749
43680,56733
43669,56752
43676,56745
43680,56721
43684,56742
43698,56739
43679,56717
43681,56726
43693,56724
43694,56715
43677,56704
43672,56715
43683,56716
43683,56715
43696,56722
43689,56712
43708,56718
43716,56720
43694,56714
43708,56706
43718,56725
43713,56726
43731,56711
43718,56719
43719,56738
43718,56741
43724,56739
43727,56745
43721,56724
43735,56738
43731,56746
43734,56748
43749,56754
43750,56742
43755,56761
43742,56755
43751,56757
43737,56762
43757,56762
43753,56766
43772,56770
43772,56774
43764,56787
43774,56769
43779,56775
43774,56795
43799,56786
43780,56800
43784,56812
43792,56804
43808,56795
43806,56808
43806,56808
43801,56821
43805,56821
43810,56838
43829,56848
43826,56835
43811,56846
43824,56856
43826,56849
43845,56860
43833,56866
43853,56874
43832,56856
43857,56868
43850,56875
43853,56875
43843,56893
43847,56889
43875,56891
43871,56907
43863,56905
43879,56913
43874,56939
43882,56930
43894,56922
43875,56932
43888,56944
43896,56937
43882,56961
43902,56956
43907,56966
43904,56972
43924,56958
43921,56964
43915,56974
43908,56959
43901,56958
43901,56924
43894,56920
43897,56896
43899,56875
43890,56843
43880,56819
43881,56823
43878,56801
43883,56774
43869,56784
43882,56771
43880,56759
43876,56759
43877,56760
43881,56745
43884,56751
43889,56749
43886,56738
43887,56759
43897,56726
43895,56729
43900,56727
43888,56727
43880,56717
43915,56704
43895,56715
43894,56704
43893,56690
43895,56697
43901,56707
43906,56698
43910,56693
43906,56659
43918,56709
43914,56687
43911,56690
43903,56687
43915,56682
43911,56688
43919,56682
43934,56672
43936,56678
43925,56674
43913,56676
43908,56675
43893,56670
43919,56654
43912,56652
43925,56667
43921,56664
43932,56656
43923,56670
43930,56669
43928,56660
43952,56674
43939,56678
43935,56676
43945,56675
43964,56679
43942,56681
43949,56686
43950,56672
43947,56699
43959,56682
43967,56714
43955,56717
43961,56707
43956,56716
43963,56702
43968,56712
43962,56714
43979,56731
43979,56728
43974,56727
43991,56716
43983,56744
43968,56740
43976,56744
43967,56731
43985,56747
43998,56736
43977,56738
43990,56757
43999,56764
43997,56756
43994,56747
44013,56771
44016,56771
44013,56781
44018,56774
44010,56790
44010,56798
44007,56789
44013,56794
44037,56795
44041,56813
44033,56814
44029,56795
44044,56804
44037,56818
44046,56813
44053,56828
44055,56820
44060,56836
44042,56844
44054,56840
44072,56849
44052,56859
44055,56836
44055,56811
44055,56801
44041,56773
44042,56757
44044,56735
44026,56704
44037,56677
44031,56703
44023,56672
44023,56651
44021,56649
44028,56634
44036,56630
44018,56640
44018,56624
44003,56635
44018,56613
44026,56612
44012,56614
44017,56597
44016,56588
44033,56589
44030,56579
44019,56564
44026,56563
44036,56560
44043,56553
44027,56543
44032,56550
44011,56541
44021,56554
44015,56522
44035,56540
44022,56546
44028,56547
44036,56552
44034,56549
44026,56545
44039,56533
44042,56536
44036,56540
44047,56538
44044,56527
44053,56518
44033,56521
44049,56520
44049,56531
44050,56520
44049,56519
44056,56519
44065,56524
44051,56520
44056,56529
44062,56523
44062,56529
44072,56530
44062,56534
44069,56545
44077,56534
44070,56547
44078,56551
44099,56562
44087,56548
44094,56566
44097,56559
44090,56586
44084,56571
44094,56565
44093,56585
44094,56586
44099,56581
44110,56598
44105,56591
44103,56589
44108,56604
44118,56607
44124,56599
44120,56609
44119,56610
44132,56611
44128,56625
44141,56614
44149,56640
44148,56635
44141,56641
44142,56630
44141,56651
44155,56647
44154,56657
44153,56649
44155,56669
44164,56660
44157,56677
44166,56697
44178,56689
44168,56684
44196,56686
44178,56706
44191,56705
44185,56714
44177,56709
44199,56723
44196,56708
44187,56715
44208,56734
44201,56744
44209,56751
44193,56745
44230,56762
44219,56747
44223,56758
44219,56774
44224,56783
44218,56792
44227,56787
44238,56783
44226,56773
44228,56779
44223,56740
44223,56740
44230,56701
44204,56684
44213,56671
44196,56648
44183,56615
44196,56631
44194,56592
44185,56585
44180,56589
44177,56585
44183,56578
44193,56563
44194,56577
44205,56574
44197,56570
44204,56570
44195,56539
44203,56545
44208,56546
44172,56545
44195,56532
44190,56523
44187,56519
44204,56515
44186,56501
44195,56519
44193,56511
44199,56499
44202,56512
44206,56516
44195,56491
44198,56503
44210,56520
44221,56504
44207,56505
44198,56503
44214,56508
44213,56512
44200,56496
44210,56491
44200,56488
44224,56494
44214,56489
44202,56498
44192,56516
44212,56493
44216,56464
44213,56488
44219,56473
44211,56519
44225,56492
44208,56505
44218,56503
44223,56508
44234,56496
44274,56503
44253,56512
44248,56511
44217,56517
44245,56528
44223,56535
44229,56525
44249,56531
44264,56527
44263,56534
44251,56536
44245,56546
44252,56543
44271,56540
44257,56528
44259,56539
44268,56569
44269,56562
44265,56567
44277,56582
44282,56559
44285,56584
44279,56588
44285,56599
44288,56581
44287,56610
44293,56618
44282,56609
44294,56599
44300,56613
44303,56614
44314,56622
44302,56624
44315,56622
44313,56637
44316,56635
44319,56653
44323,56647
44328,56651
44314,56661
44328,56658
44328,56664
44326,56667
44322,56678
44347,56664
44344,56656
44344,56682
44325,56704
44353,56698
44353,56706
44349,56711
44352,56713
44363,56718
44364,56718
44361,56716
44356,56726
44364,56708
44365,56714
44349,56691
44353,56689
44339,56644
44350,56624
44318,56603
44323,56592
44325,56547
44326,56562
44331,56548
44316,56539
44330,56543
44328,56540
44307,56514
44318,56514
44323,56530
44328,56512
44316,56499
44336,56506
44334,56493
44334,56492
44332,56487
44307,56491
44331,56465
44301,56463
44311,56448
44306,56458
44321,56452
44326,56447
44334,56444
44316,56463
44332,56449
44332,56454
44323,56451
44331,56458
44321,56453
44330,56449
44335,56455
44328,56438
44327,56439
44344,56449
44329,56436
44327,56436
44331,56435
44319,56435
44336,56441
44332,56432
44315,56439
44342,56438
44329,56437
44335,56438
44338,56444
44352,56447
44350,56438
44346,56455
44353,56449
44351,56444
44361,56470
44359,56468
44355,56472
44367,56474
44359,56473
44365,56478
44369,56477
44363,56488
44371,56488
44372,56492
44375,56505
44379,56503
44378,56515
44388,56512
44392,56513
44388,56529
44381,56516
44402,56535
44389,56527
44403,56536
44410,56546
44408,56552
44406,56564
44409,56550
44402,56565
44412,56570
44428,56563
44425,56576
44424,56586
44429,56576
44426,56588
44433,56599
44426,56595
44433,56609
44427,56611
44449,56616
44446,56616
44441,56629
44443,56628
44437,56632
44451,56633
44457,56643
44452,56654
44457,56650
44475,56657
44457,56672
44457,56670
44464,56691
44478,56686
44472,56684
44483,56705
44474,56704
44493,56702
44489,56716
44498,56721
44495,56730
44501,56723
44501,56742
44506,56724
44511,56747
44525,56760
44512,56768
44516,56768
44510,56753
44510,56753
44498,56739
44513,56731
44519,56715
44500,56685
44491,56673
44487,56667
44476,56627
44494,56626
44480,56628
44474,56600
44484,56604
44475,56617
44478,56597
44484,56597
44494,56588
44496,56596
44482,56585
44498,56592
44494,56596
44492,56604
44548,56640
44543,56634
44564,56656
44567,56671
44565,56672
44551,56660
44558,56659
44562,56665
44556,56671
44569,56688
44578,56707
44558,56697
44577,56654
44572,56669
44571,56688
44564,56716
44569,56720
44571,56713
44583,56720
44563,56729
44588,56727
44596,56719
44591,56720
44589,56729
44563,56750
44585,56748
44562,56748
44582,56755
44599,56759
44588,56764
44592,56767
44602,56758
44598,56773
44592,56792
44600,56791
44607,56789
44602,56803
44600,56803
44617,56820
44607,56813
44613,56832
44620,56819
44626,56839
44615,56840
44626,56845
44622,56833
44635,56858
44631,56845
44629,56873
44633,56864
44637,56868
44635,56881
44636,56885
44637,56883
44638,56896
44632,56892
44652,56898
44646,56907
44640,56906
44657,56924
44664,56916
44645,56926
44669,56942
44661,56930
44663,56948
44671,56968
44663,56961
44679,56966
44669,56969
44686,56980
44679,56979
44684,56978
44676,57007
44679,56991
44693,57009
44682,57017
44676,57014
44695,57030
44705,57029
44689,57036
44703,57039
44691,57048
44680,57025
44699,57019
44670,56994
44674,56993
44678,56969
44670,56960
44679,56953
44673,56939
44659,56939
44656,56937
44682,56926
44668,56949
44663,56941
44680,56941
44676,56948
44661,56941
44688,56925
44684,56946
44679,56946
44677,56933
44679,56931
44672,56934
44683,56932
44661,56941
44661,56922
44660,56912
44663,56913
44666,56917
44681,56914
44661,56930
44678,56932
44687,56926
44679,56933
44685,56929
44673,56942
44685,56949
44682,56942
44666,56937
44677,56952
44672,56930
44693,56937
44671,56923
44685,56942
44663,56950
44682,56935
44698,56944
44682,56956
44674,56952
44690,56945
44688,56949
44685,56946
44686,56949
44692,56957
44699,56960
44692,56953
44684,56963
44693,56968
44701,56977
44688,56978
44678,56966
44692,56969
44699,56973
44701,56984
44693,56984
44701,56988
44694,56995
44701,57007
44703,57003
44711,57015
44703,57019
44712,57019
44710,57021
44706,57026
44724,57018
44708,57032
44709,57024
44713,57023
44727,57024
44719,57037
44724,57037
44707,57056
44714,57059
44728,57070
44721,57060
44739,57073
44716,57070
44729,57078
44727,57081
44721,57086
44739,57093
44726,57080
44714,57088
44727,57104
44737,57098
44739,57113
44720,57108
44736,57126
44760,57115
44740,57131
44743,57135
44740,57124
44754,57138
44742,57133
44743,57152
44746,57147
44759,57149
44752,57150
44746,57161
44750,57160
44756,57159
44761,57182
44756,57185
44758,57164
44748,57181
44763,57193
44763,57192
44763,57187
44765,57208
44750,57202
44748,57182
44755,57196
44758,57153
44753,57159
44739,57139
44729,57109
44729,57108
44731,57087
44730,57088
44725,57088
44724,57093
44733,57080
44738,57079
44763,57086
44726,57087
44734,57086
44722,57078
44725,57065
44712,57067
44740,57079
44718,57077
44723,57061
44726,57068
44728,57065
44731,57068
44723,57043
44713,57045
44719,57030
44710,57034
44716,57026
44721,57047
44721,57040
44733,57042
44727,57051
44715,57056
44715,57074
44720,57029
44707,57037
44721,57033
44720,57036
44735,57015
44725,57035
44724,57039
44707,57048
44723,57045
44714,57028
44701,57027
44711,57035
44732,57030
44717,57032
44716,57042
44716,57037
44722,57035
44717,57044
44719,57056
44701,57040
44707,57010
44727,57031
44714,57045
44715,57060
44727,57051
44718,57068
44690,57066
44725,57071
44718,57057
44741,57048
44735,57080
44715,57072
44723,57080
44723,57077
44718,57079
44724,57087
44719,57083
44725,57081
44728,57093
44737,57092
44742,57099
44711,57102
44729,57097
44728,57097
44743,57118
44743,57108
44742,57112
44735,57114
44733,57120
44733,57127
44728,57141
44755,57122
44727,57141
44745,57146
44736,57135
44722,57136
44750,57166
44742,57145
44751,57143
44747,57161
44734,57164
44753,57176
44748,57178
44742,57164
44748,57194
44749,57161
44743,57165
44763,57195
44754,57176
44747,57189
44746,57204
44770,57190
44751,57211
44749,57198
44757,57213
44771,57218
44767,57217
44773,57236
44767,57217
44766,57232
44776,57236
44772,57240
44768,57239
44770,57237
44777,57257
44760,57258
44785,57266
44783,57252
44756,57255
44778,57262
44779,57259
44777,57268
44789,57289
44784,57279
44790,57293
44790,57280
44787,57286
44778,57276
44785,57268
44778,57250
44758,57248
44768,57231
44763,57197
44747,57177
44741,57174
44738,57162
44721,57147
44749,57163
44740,57136
44742,57159
44743,57140
44754,57148
44749,57146
44734,57163
44744,57142
44739,57130
44729,57145
44743,57145
44743,57130
44733,57127
44725,57120
44733,57116
44729,57105
44715,57095
44719,57086
44714,57093
44714,57101
44719,57089
44726,57093
44724,57105
44723,57097
44714,57096
44737,57115
44723,57108
44725,57090
44716,57099
44714,57090
44720,57102
44726,57100
44729,57095
44716,57096
44710,57083
44713,57103
44721,57083
44714,57083
44698,57086
44720,57075
44720,57075
44719,57090
44715,57082
44717,57080
44726,57086
44708,57093
44722,57112
44718,57102
44714,57092
44708,57096
44739,57111
44727,57106
44724,57116
44744,57096
44731,57112
44721,57103
44719,57098
44711,57098
44747,57120
44726,57126
44736,57117
44734,57120
44724,57098
44721,57116
44731,57126
44732,57130
44726,57117
44722,57128
44731,57111
44717,57129
44727,57134
44721,57143
44725,57130
44721,57157
44734,57148
44733,57149
44733,57160
44710,57155
44719,57156
44739,57170
44718,57159
44731,57163
44733,57173
44730,57172
44726,57171
44748,57165
44729,57183
44743,57180
44740,57195
44742,57208
44747,57188
44746,57188
44749,57198
44743,57200
44752,57216
44745,57201
44749,57199
44740,57212
44737,57228
44750,57219
44753,57221
44745,57231
44756,57229
44750,57232
44737,57229
44754,57241
44754,57244
44768,57239
44755,57260
44770,57246
44764,57248
44765,57247
44761,57249
44750,57256
44739,57234
44737,57226
44743,57186
44746,57191
44730,57158
44730,57149
44712,57127
44714,57121
44709,57127
44705,57117
44704,57096
44706,57098
44710,57085
44700,57083
44687,57086
44699,57085
44705,57077
44699,57072
44712,57077
44706,57070
44713,57083
44686,57059
44689,57065
44702,57055
44695,57042
44690,57053
44686,57040
44699,57028
44668,57007
44682,57022
44685,57038
44690,57020
44667,57024
44677,57024
44695,57031
44680,57032
44688,57016
44676,57010
44682,57023
44663,57015
44682,56992
44692,57009
44672,57024
44670,56983
44672,56977
44673,56965
44664,56999
44661,56977
44673,56992
44681,56993
44652,56989
44666,56994
44661,56991
44691,56991
44682,56991
44671,57006
44632,57005
44664,56993
44654,56995
44664,56991
44690,57003
44671,57002
44665,56995
44669,57001
44666,57020
44661,57002
44665,57022
44680,57025
44673,57016
44674,57020
44668,57020
44664,57027
44681,57031
44669,57012
44680,57028
44684,57034
44675,57038
44681,57035
44666,57052
44668,57054
44682,57048
44689,57042
44675,57051
44684,57048
44682,57055
44674,57050
44658,57057
44677,57068
44688,57060
44686,57060
44695,57053
44703,57056
44697,57074
44700,57078
44684,57082
44697,57083
44685,57084
44687,57076
44685,57105
44701,57102
44704,57108
44695,57113
44703,57101
44702,57120
44706,57103
44716,57119
44701,57130
44712,57126
44711,57128
44714,57140
44704,57146
44719,57153
44718,57152
44705,57167
44709,57153
44719,57148
44720,57151
44719,57167
44726,57176
44730,57174
44723,57162
44710,57165
44725,57172
44715,57158
44708,57138
44710,57124
44710,57100
44700,57085
44685,57065
44686,57054
44662,57021
44661,57022
44654,57005
44675,56993
44656,56991
44672,56984
44649,56982
44666,56984
44661,56975
44641,56963
44662,56956
44661,56957
44649,56952
44666,56934
44654,56946
44640,56932
44652,56923
44641,56899
44638,56904
44647,56885
44648,56871
44636,56867
44632,56876
44622,56879
44629,56850
44630,56857
44624,56848
44615,56858
44629,56868
44640,56859
44631,56871
44630,56834
44619,56853
44616,56842
44611,56841
44626,56847
44629,56836
44626,56840
44630,56821
44616,56836
44615,56824
44610,56817
44613,56810
44597,56809
44614,56817
44602,56812
44620,56831
44627,56808
44614,56821
44628,56811
44613,56817
44615,56803
44617,56833
44606,56824
44629,56830
44611,56837
44623,56837
44617,56838
44621,56847
44609,56846
44623,56843
44616,56845
44634,56850
44624,56855
44627,56850
44629,56850
44622,56859
44615,56853
44627,56878
44630,56879
44633,56859
44639,56890
44629,56869
44633,56887
44634,56889
44627,56893
44650,56893
44657,56893
44630,56897
44652,56906
44645,56893
44641,56905
44637,56923
44643,56914
44649,56928
44639,56937
44644,56923
44650,56926
44642,56927
44647,56934
44659,56947
44651,56936
44662,56948
44663,56943
44659,56953
44666,56965
44639,56966
44659,56979
44672,56982
44674,56970
44681,56996
44675,56975
44667,56999
44677,56991
44684,56987
44676,57007
44668,57009
44684,56999
44693,57007
44693,57018
44689,57023
44690,57028
44690,57029
44687,57043
44697,57030
44701,57033
44699,57057
44710,57038
44704,57062
44697,57053
44712,57058
44712,57065
44707,57063
44708,57052
44705,57042
44703,57016
44680,57005
44682,56989
44666,56974
44677,56946
44668,56925
44672,56903
44667,56891
44650,56901
44656,56875
44657,56897
44659,56884
44665,56883
44645,56906
44652,56864
44663,56878
44644,56881
44652,56873
44665,56864
44653,56874
44662,56848
44644,56848
44652,56831
44653,56836
44640,56835
44650,56804
44652,56818
44648,56835
44615,56814
44649,56822
44640,56855
44655,56845
44657,56818
44645,56773
44652,56807
44648,56809
44644,56809
44625,56802
44643,56818
44645,56815
44669,56812
44661,56827
44649,56801
44645,56808
44645,56800
44627,56803
44634,56809
44644,56801
44646,56807
44648,56830
44645,56825
44657,56812
44660,56820
44651,56831
44661,56825
44671,56824
44652,56833
44654,56836
44655,56840
44665,56840
44670,56848
44655,56838
44658,56849
44671,56868
44659,56868
44673,56867
44684,56861
44676,56863
44669,56854
44672,56875
44676,56881
44692,56894
44688,56893
44676,56874
44689,56876
44692,56914
44696,56909
44696,56898
44704,56916
44692,56907
44703,56911
44697,56926
44704,56927
44703,56918
44704,56937
44708,56925
44706,56938
44721,56944
44721,56965
44731,56956
44701,56944
44728,56952
44720,56957
44727,56961
44730,56984
44732,56988
44725,56970
44719,56995
44749,56991
44729,56995
44750,56996
44731,57014
44742,57019
44734,57021
44745,57015
44742,57010
44752,57019
44744,57028
44743,57045
44754,57040
44762,57042
44760,57054
44765,57052
44765,57066
44762,57077
44756,57060
44778,57068
44766,57088
44762,57083
44767,57087
44766,57083
44765,57092
44761,57094
44791,57104
44793,57113
44774,57107
44787,57113
44771,57106
44770,57107
44755,57097
44773,57071
44776,57052
44759,57035
44742,57028
44751,57007
44755,57008
44745,56980
44738,56973
44740,56970
44732,56959
44733,56966
44758,56959
44741,56967
44749,56964
44728,56948
44737,56952
44733,56959
44731,56967
44737,56943
44727,56937
44727,56942
44755,56946
44728,56916
44725,56919
44731,56932
44718,56920
44712,56908
44728,56903
44740,56904
44729,56894
44744,56905
44727,56891
44733,56909
44725,56923
44733,56909
44732,56916
44735,56932
44735,56929
44728,56910
44725,56910
44727,56908
44728,56905
44724,56923
44727,56915
44730,56897
44725,56899
44731,56910
44724,56911
44729,56907
44719,56902
44709,56899
44725,56916
44737,56918
44730,56911
44717,56916
44724,56925
44734,56935
44724,56911
44728,56939
44728,56936
44724,56948
44739,56945
44743,56932
44730,56945
44736,56943
44739,56942
44724,56950
44741,56948
44742,56946
44747,56946
44751,56963
44761,56979
44742,56969
44745,56970
44739,56972
44747,56979
44763,56962
44769,56977
44755,56992
44757,57004
44738,56978
44758,56998
44752,56976
44754,56996
44743,57012
44756,56993
44757,57014
44777,57011
44762,57017
44768,57003
44758,57016
44761,57025
44782,57045
44762,57050
44767,57042
44755,57044
44768,57040
44780,57043
44774,57059
44774,57056
44783,57054
44790,57062
44774,57070
44786,57064
44772,57088
44788,57080
44783,57086
44782,57087
44772,57088
44779,57101
44802,57094
44791,57119
44795,57113
44796,57114
44795,57108
44790,57119
44803,57140
44800,57135
44808,57150
44800,57135
44797,57161
44804,57153
44803,57155
44813,57172
44813,57156
44809,57166
44814,57174
44810,57173
44821,57151
44810,57200
44823,57194
44824,57192
44831,57206
44809,57203
44816,57206
44820,57181
44818,57174
44814,57151
44806,57134
44802,57118
44801,57097
44794,57093
44786,57097
44766,57112
44777,57060
44782,57049
44784,57050
44774,57083
44803,57084
44775,57085
44784,57078
44796,57093
44784,57099
44798,57077
44802,57086
44814,57084
44791,57086
44780,57081
44768,57092
44770,57083
44786,57062
44777,57077
44788,57065
44793,57070
44784,57063
44795,57067
44772,57067
44791,57070
44779,57087
44793,57084
44778,57086
44778,57070
44787,57072
44777,57091
44783,57063
44767,57070
44786,57070
44769,57073
44794,57073
44790,57075
44792,57079
44792,57070
44772,57078
44781,57078
44783,57071
44795,57079
44781,57080
44783,57089
44784,57080
44788,57099
44794,57087
44783,57083
44780,57091
44786,57117
44802,57088
44782,57112
44794,57109
44799,57119
44787,57099
44791,57125
44801,57114
44792,57114
44791,57104
44795,57131
44780,57127
44794,57130
44791,57125
44788,57142
44793,57139
44788,57133
44808,57146
44801,57138
44795,57147
44813,57149
44799,57159
44806,57143
44801,57171
44823,57157
44793,57157
44808,57171
44793,57183
44801,57169
44803,57164
44805,57180
44812,57184
44810,57171
44819,57189
44794,57193
44806,57197
44802,57209
44821,57202
44812,57201
44822,57200
44827,57226
44817,57211
44819,57223
44818,57215
44813,57222
44835,57219
44819,57229
44834,57238
44812,57243
44823,57246
44834,57239
44837,57249
44834,57248
44841,57250
44825,57264
44829,57259
44813,57258
44825,57227
44802,57220
44811,57197
44816,57183
44811,57172
44814,57157
44783,57156
44789,57146
44800,57134
44789,57144
44792,57132
44781,57133
44797,57138
44786,57135
44777,57118
44791,57117
44808,57131
44790,57135
44773,57121
44767,57125
44778,57122
44783,57111
44776,57093
44779,57098
44782,57075
44782,57082
44778,57086
44762,57073
44780,57076
44773,57077
44777,57081
44775,57066
44775,57076
44780,57084
44764,57079
44782,57078
44769,57073
44768,57072
44766,57073
44776,57078
44779,57077
44767,57084
44775,57066
44762,57066
44763,57075
44769,57059
44757,57064
44752,57065
44755,57034
44769,57059
44767,57060
44759,57063
44762,57070
44766,57075
44761,57066
44757,57064
44766,57067
44764,57082
44757,57059
44770,57057
44750,57069
44775,57068
44771,57078
44769,57080
44752,57082
44765,57075
44763,57085
44754,57091
44760,57071
44765,57090
44770,57083
44764,57085
44765,57090
44772,57093
44770,57089
44769,57095
44753,57095
44756,57099
44777,57089
44768,57099
44768,57116
44758,57101
44761,57104
44764,57107
44777,57114
44780,57111
44766,57104
44759,57111
44767,57138
44783,57128
44783,57131
44779,57129
44764,57131
44774,57117
44771,57138
44776,57132
44762,57136
44787,57150
44779,57143
44785,57147
44785,57150
44778,57159
44774,57154
44790,57172
44779,57160
44790,57169
44779,57180
44793,57191
44796,57180
44801,57192
44790,57183
44798,57207
44782,57179
44796,57191
44788,57213
44791,57199
44786,57216
44785,57214
44793,57208
44794,57218
44793,57218
44822,57229
44802,57247
44815,57215
44826,57231
44799,57224
44805,57220
44812,57240
44816,57261
44823,57248
44810,57266
44805,57234
44829,57248
44819,57238
44791,57220
44797,57187
44803,57183
44784,57177
44765,57187
44769,57137
44759,57098
44761,57093
44767,57114
44774,57085
44777,57095
44765,57075
44770,57089
44781,57099
44776,57100
44758,57086
44780,57088
44752,57111
44756,57097
44725,57071
44743,57073
44736,57064
44748,57042
44756,57040
44754,57048
44740,57030
44740,57034
44743,57049
44753,57037
44732,57022
44744,57029
44742,57043
44745,57041
44736,57031
44745,57025
44749,57027
44734,57027
44753,57025
44742,57027
44733,57008
44720,57020
44733,57002
44736,57002
44720,56994
44737,56995
44729,57003
44727,57002
44729,56999
44742,56976
44729,56990
44712,56981
44730,57001
44716,56993
44717,56988
44724,56979
44719,56985
44720,56995
44721,56994
44730,56988
44728,56993
44723,56991
44717,56993
44719,56975
44727,57003
44725,56996
44712,56996
44721,56990
44720,56996
44723,56996
44719,56990
44725,57004
44724,56991
44732,56990
44719,56990
44730,56992
44710,57003
44732,56999
44730,57000
44721,57018
44731,57015
44715,57000
44714,57022
44725,57017
44724,57022
44726,57014
44717,57025
44731,57012
44727,57028
44735,57020
44739,57017
44720,57012
44747,57019
44730,57032
44738,57030
44728,57032
44739,57041
44741,57042
44722,57037
44735,57040
44727,57052
44741,57069
44737,57057
44732,57068
44738,57053
44744,57056
44736,57065
44740,57072
44740,57068
44749,57062
44731,57084
44728,57074
44744,57091
44749,57082
44726,57070
44747,57078
44745,57086
44750,57083
44748,57071
44746,57071
44732,57046
44735,57042
44730,57025
44717,57006
44697,56980
44695,56950
44704,56941
44700,56916
44705,56923
44701,56901
44696,56901
44692,56911
44687,56916
44692,56894
44686,56881
44685,56901
44676,56881
44686,56882
44674,56867
44685,56856
44676,56850
44681,56848
44675,56833
44670,56814
44663,56803
44660,56812
44657,56804
44669,56797
44673,56795
44652,56786
44659,56800
44654,56799
44635,56786
44665,56787
44657,56780
44659,56780
44650,56788
44672,56763
44659,56773
44651,56760
44650,56773
44657,56743
44655,56750
44639,56752
44640,56751
44646,56738
44643,56746
44652,56743
44641,56739
44643,56754
44645,56743
44649,56757
44654,56736
44646,56738
44651,56760
44662,56738
44648,56745
44657,56753
44645,56755
44660,56751
44640,56733
44658,56755
44656,56755
44650,56770
44652,56769
44660,56769
44649,56754
44672,56758
44647,56770
44650,56765
44661,56774
44657,56768
44659,56766
44653,56771
44659,56774
44672,56775
44667,56774
44665,56776
44659,56794
44663,56795
44663,56792
44666,56812
44673,56796
44648,56796
44674,56805
44676,56804
44664,56807
44684,56819
44658,56818
44690,56831
44681,56836
44679,56833
44673,56824
44701,56846
44699,56841
44698,56846
44697,56857
44693,56850
44696,56863
44688,56861
44708,56862
44708,56870
44701,56880
44708,56872
44707,56880
44706,56875
44724,56881
44702,56900
44729,56900
44717,56901
44713,56904
44726,56908
44727,56912
44725,56920
44744,56928
44724,56925
44738,56941
44746,56946
44728,56946
44742,56942
44742,56950
44746,56961
44748,56965
44759,56969
44746,56984
44750,56979
44769,56974
44764,56995
44755,56997
44748,56999
44696,56863
44759,56993
44738,56982
44742,56973
44744,56913
44742,56863
44730,56875
44714,56867
44740,56854
44727,56838
44722,56831
44712,56833
44720,56826
44735,56826
44719,56824
44715,56832
44712,56823
44708,56826
44700,56824
44727,56816
44728,56812
44729,56816
44721,56798
44706,56785
44711,56783
44715,56775
44706,56774
44723,56769
44715,56763
44709,56763
44702,56767
44706,56773
44703,56764
44709,56774
44725,56767
44718,56769
44728,56778
44718,56783
44717,56784
44716,56775
44707,56771
44728,56779
44709,56784
44717,56769
44709,56769
44724,56773
44723,56771
44706,56779
44726,56760
44724,56760
44718,56775
44717,56769
44737,56779
44735,56784
44730,56768
44737,56784
44733,56784
44737,56774
44745,56793
44760,56791
44760,56792
44749,56796
44736,56792
44754,56820
44741,56803
44744,56813
44755,56808
44739,56818
44758,56839
44756,56811
44767,56830
44756,56848
44772,56843
44754,56829
44760,56827
44762,56829
44762,56863
44758,56855
44763,56862
44786,56846
44780,56862
44762,56879
44769,56880
44776,56877
44762,56879
44775,56874
44789,56891
44773,56873
44782,56881
44780,56892
44796,56880
44798,56891
44807,56888
44802,56904
44790,56889
44788,56918
44809,56924
44800,56937
44793,56933
44800,56932
44807,56949
44814,56941
44806,56938
44814,56937
44819,56941
44802,56955
44817,56955
44812,56941
44799,56962
44819,56966
44817,56974
44830,56967
44825,56972
44830,56985
44817,56999
44834,57004
44824,56987
44839,56991
44848,57005
44842,57013
44843,57018
44843,57009
44850,57014
44842,57032
44837,57047
44853,57028
44850,57050
44855,57038
44847,57024
44846,57038
44860,57012
44830,57002
44835,56999
44833,56975
44830,56939
44810,56930
44814,56913
44808,56913
44803,56893
44796,56897
44811,56868
44797,56883
44805,56859
44795,56862
44796,56869
44804,56867
44800,56867
44800,56871
44791,56866
44799,56844
44796,56851
44788,56834
44778,56830
44789,56812
44788,56816
44786,56802
44789,56815
44788,56807
44784,56787
44784,56806
44790,56798
44785,56791
44797,56792
44789,56796
44787,56801
44780,56800
44772,56812
44784,56802
44789,56775
44765,56794
44774,56791
44788,56780
44774,56780
44763,56777
44786,56772
44773,56778
44769,56783
44782,56777
44772,56795
44772,56773
44772,56781
44787,56773
44778,56769
44778,56797
44764,56779
44782,56799
44800,56791
44780,56808
44782,56783
44789,56791
44783,56796
44796,56801
44804,56788
44779,56787
44803,56794
44801,56802
44790,56815
44794,56799
44788,56807
44791,56812
44786,56815
44799,56815
44798,56818
44804,56813
44786,56823
44807,56821
44793,56836
44803,56831
44791,56835
44810,56837
44791,56839
44801,56828
44800,56847
44813,56853
44820,56847
44802,56851
44813,56868
44806,56855
44825,56858
44808,56857
44815,56873
44820,56856
44819,56883
44817,56880
44836,56892
44816,56887
44833,56890
44817,56900
44836,56892
44830,56905
44844,56914
44837,56904
44832,56920
44830,56913
44842,56928
44846,56909
44846,56910
44828,56940
44842,56925
44837,56940
44848,56924
44848,56944
44861,56953
44848,56950
44863,56953
44832,56950
44838,56962
44863,56971
44869,56987
44862,57002
44875,56969
44869,56964
44866,56975
44880,56984
44867,56967
44867,56949
44869,56955
44847,56907
44845,56893
44823,56884
44840,56855
44843,56850
44808,56818
44783,56826
44812,56795
44805,56801
44809,56807
44806,56789
44808,56787
44798,56802
44786,56789
44804,56791
44799,56784
44818,56769
44796,56763
44792,56750
44791,56752
44784,56741
44783,56724
44798,56724
44778,56725
44783,56722
44766,56730
44796,56703
44785,56705
44785,56699
44753,56704
44768,56691
44779,56701
44767,56701
44761,56702
44778,56712
44766,56694
44774,56714
44778,56700
44792,56705
44786,56699
44778,56688
44778,56689
44765,56706
44769,56700
44769,56694
44766,56665
44767,56688
44766,56701
44771,56673
44767,56682
44756,56689
44765,56701
44768,56700
44777,56698
44789,56704
44778,56698
44781,56713
44780,56702
44784,56703
44785,56694
44775,56712
44786,56713
44774,56717
44781,56726
44779,56722
44784,56719
44789,56729
44778,56743
44796,56734
44794,56732
44790,56730
44782,56738
44795,56748
44802,56754
44798,56763
44790,56773
44798,56769
44799,56767
44792,56767
44797,56770
44796,56783
44797,56776
44805,56778
44787,56790
44793,56800
44802,56778
44805,56799
44801,56807
44803,56811
44820,56806
44821,56818
44821,56819
44812,56821
44834,56825
44807,56829
44823,56846
44819,56861
44833,56838
44824,56851
44838,56856
44833,56853
44829,56867
44833,56863
44840,56861
44840,56875
44831,56872
44844,56883
44854,56894
44844,56901
44850,56894
44854,56907
44841,56902
44858,56909
44848,56921
44846,56934
44856,56925
44843,56936
44853,56936
44845,56942
44862,56951
44840,56947
44866,56966
44847,56970
44874,56980
44868,56961
44866,56980
44869,56968
44871,56985
44878,57001
44884,56991
44891,57005
44885,56997
44871,57000
44884,56981
44862,56961
44867,56948
44841,56931
44839,56906
44842,56892
44830,56868
44832,56875
44837,56857
44835,56841
44841,56827
44826,56835
44831,56841
44835,56848
44826,56840
44822,56843
44838,56850
44810,56854
44827,56844
44820,56842
44839,56831
44826,56835
44829,56821
44821,56804
44826,56817
44819,56815
44828,56812
44806,56820
44816,56798
44805,56803
44816,56821
44835,56833
44825,56817
44820,56815
44828,56808
44802,56813
44813,56813
44822,56814
44821,56817
44812,56815
44824,56808
44811,56818
44832,56812
44811,56818
44805,56809
44827,56816
44801,56810
44822,56810
44809,56818
44812,56817
44813,56824
44820,56799
44820,56811
44813,56815
44820,56833
44812,56837
44815,56836
44817,56857
44825,56827
44812,56852
44825,56864
44832,56852
44833,56869
44824,56857
44829,56855
44837,56860
44818,56866
44843,56877
44825,56881
44846,56883
44834,56879
44835,56890
44837,56892
44824,56901
44826,56896
44832,56893
44841,56881
44826,56899
44843,56910
44826,56910
44845,56908
44848,56933
44851,56920
44843,56912
44854,56941
44858,56948
44859,56938
44852,56937
44835,56935
44847,56936
44852,56937
44856,56973
44851,56966
44852,56979
44871,56981
44859,56961
44861,56975
44862,56985
44869,56988
44862,57001
44877,56996
44872,57002
44867,57019
44875,57011
44867,57040
44883,57020
44879,56998
44888,56992
44876,57031
44887,57027
44883,57038
44871,57044
44884,57047
44886,57056
44877,57058
44902,57048
44904,57077
44893,57087
44870,57074
44896,57080
44883,57043
44870,57051
44872,57026
44869,56994
44863,56977
44845,56962
44850,56951
44852,56937
44854,56926
44848,56918
44847,56917
44843,56923
44826,56927
44848,56917
44834,56908
44834,56921
44833,56915
44838,56924
44829,56922
44831,56902
44837,56917
44813,56895
44820,56905
44807,56878
44834,56887
44831,56879
44802,56880
44807,56877
44822,56865
44813,56872
44808,56858
44820,56870
44831,56877
44806,56884
44814,56877
44804,56878
44812,56888
44816,56880
44814,56863
44807,56865
44808,56866
44807,56870
44805,56859
44802,56871
44803,56867
44799,56859
44823,56866
44817,56860
44807,56864
44819,56856
44810,56865
44819,56871
44818,56870
44811,56863
44814,56866
44811,56873
44824,56873
44822,56877
44797,56883
44804,56859
44816,56886
44804,56881
44810,56900
44826,56892
44815,56885
44816,56895
44811,56893
44825,56907
44812,56896
44819,56902
44822,56897
44825,56907
44819,56907
44830,56911
44821,56912
44818,56922
44828,56924
44828,56909
44830,56921
44810,56927
44819,56931
44829,56928
44831,56940
44841,56948
44830,56937
44830,56955
44823,56947
44823,56961
44829,56964
44820,56946
44824,56957
44835,56974
44839,56964
44828,56991
44835,56981
44832,56967
44833,56982
44842,56988
44857,56991
44843,56990
44850,56996
44848,57006
44845,57005
44842,57007
44846,57017
44857,56990
44856,57019
44854,57035
44849,57017
44852,57034
44865,57019
44858,57042
44882,57047
44867,57056
44852,57053
44857,57051
44848,57050
44867,57062
44874,57061
44867,57065
44878,57077
44867,57068
44870,57085
44870,57095
44885,57097
44864,57098
44871,57100
44876,57092
44864,57119
44869,57093
44875,57105
44882,57123
44881,57106
44871,57103
44873,57097
44853,57061
44853,57045
44850,57019
44841,57019
44841,56991
44829,56984
44830,56964
44827,56950
44839,56942
44815,56934
44824,56950
44811,56953
44819,56961
44827,56947
44825,56954
44824,56962
44831,56954
44811,56950
44819,56952
44826,56941
44809,56931
44810,56934
44811,56915
44801,56911
44811,56912
44817,56906
44800,56898
44807,56903
44803,56891
44791,56890
44800,56898
44809,56912
44820,56914
44782,56899
44809,56909
44787,56903
44806,56891
44802,56886
44812,56909
44794,56899
44792,56887
44797,56879
44783,56889
44787,56883
44803,56886
44793,56894
44787,56878
44790,56890
44793,56866
44788,56879
44785,56881
44785,56881
44794,56886
44803,56890
44801,56885
44793,56884
44811,56878
44793,56892
44799,56890
44791,56896
44791,56908
44795,56905
44792,56901
44798,56904
44796,56904
44810,56909
44810,56917
44799,56910
44799,56909
44800,56927
44799,56920
44811,56920
44800,56926
44797,56942
44817,56923
44808,56939
44806,56943
44813,56938
44799,56938
44793,56939
44835,56924
44821,56945
44811,56947
44815,56957
44817,56956
44811,56948
44794,56962
44821,56941
44813,56974
44808,56975
44836,56984
44814,56971
44808,56975
44814,56979
44814,57003
44819,56989
44814,56964
44846,56979
44837,56998
44841,57001
44816,57012
44824,57008
44813,57009
44847,57014
44839,57017
44854,57024
44857,57017
44838,57022
44810,57043
44850,57042
44821,57040
44820,57029
44853,57045
44838,57055
44840,57050
44835,57065
44846,57051
44832,57046
44836,57019
44829,57004
44809,56974
44802,56961
44800,56948
44805,56934
44802,56912
44800,56907
44766,56891
44775,56896
44774,56884
44772,56881
44778,56882
44781,56874
44790,56874
44785,56869
44791,56867
44768,56897
44778,56878
44771,56864
44786,56857
44770,56847
44763,56832
44778,56810
44768,56843
44761,56838
44762,56810
44748,56813
44756,56808
44765,56817
44776,56823
44774,56820
44744,56812
44767,56813
44766,56821
44762,56810
44773,56814
44762,56826
44756,56816
44751,56820
44757,56817
44753,56818
44749,56792
44751,56820
44755,56814
44756,56799
44742,56786
44761,56793
44729,56808
44753,56801
44748,56799
44760,56812
44747,56801
44744,56792
44760,56809
44753,56809
44755,56807
44756,56821
44754,56818
44750,56818
44756,56820
44758,56813
44791,56822
44755,56830
44759,56829
44749,56850
44753,56829
44743,56831
44750,56838
44774,56851
44755,56838
44755,56844
44772,56858
44765,56845
44758,56846
44757,56844
44765,56857
44763,56858
44767,56870
44766,56868
44768,56852
44765,56865
44766,56877
44765,56869
44756,56875
44779,56887
44767,56884
44785,56895
44777,56897
44772,56905
44765,56900
44780,56894
44784,56910
44787,56924
44793,56915
44778,56908
44773,56914
44770,56944
44785,56930
44789,56943
44779,56938
44777,56936
44781,56917
44776,56941
44783,56957
44777,56959
44802,56959
44786,56964
44788,56974
44809,56962
44786,56956
44800,56987
44802,56970
44797,56975
44805,56981
44797,57000
44808,56998
44806,56988
44816,56993
44818,56997
44806,57005
44813,57009
44819,57007
44813,57009
44811,57025
44812,57020
44813,57036
44820,57033
44789,57024
44806,57013
44810,56994
44789,56972
44782,56946
44781,56933
44771,56937
44757,56915
44758,56892
44756,56884
44766,56885
44767,56878
44767,56871
44772,56880
44748,56881
44766,56865
44767,56875
44764,56875
44782,56874
44776,56871
44765,56859
44749,56872
44757,56865
44744,56832
44755,56851
44738,56837
44755,56832
44745,56829
44760,56818
44746,56810
44756,56824
44736,56822
44745,56827
