43105,53240
43120,53255
43124,53260
43112,53260
43109,53270
43137,53260
43131,53289
43112,53282
43132,53282
43118,53250
43111,53238
43099,53206
43070,53159
43071,53122
43054,53092
43033,53065
43053,53034
43026,52996
43020,52981
43027,52975
43011,52961
43023,52953
43016,52963
43018,52944
43014,52962
43007,52966
43015,52936
43019,52960
43007,52946
43012,52943
43009,52947
43002,52936
42997,52928
43001,52918
43000,52894
42995,52901
43003,52894
42978,52882
42978,52867
42972,52867
42994,52884
42993,52867
42990,52880
42993,52881
42987,52888
42995,52890
42988,52882
42986,52887
42985,52890
42981,52878
42984,52886
42998,52876
42970,52866
42980,52864
42985,52870
42981,52876
42977,52848
42984,52850
42980,52866
42975,52849
42974,52871
42983,52858
42985,52852
42988,52881
42978,52873
42997,52868
42989,52883
42983,52886
43013,52888
42998,52877
43010,52896
42996,52894
43009,52907
43005,52904
43007,52919
43014,52904
43016,52933
42995,52925
43022,52928
43005,52937
43012,52939
43012,52943
43024,52935
43008,52941
43022,52957
43014,52962
43009,52967
43018,52958
43015,52970
43029,52982
43022,52974
43028,52981
43030,53000
43039,53003
43049,53002
43033,53017
43031,53001
43042,53024
43054,53017
43050,53038
43045,53032
43041,53048
43063,53056
43057,53062
43055,53060
43069,53081
43068,53074
43066,53072
43047,53093
43074,53097
43073,53096
43100,53108
43072,53130
43080,53127
43088,53131
43092,53164
43100,53159
43105,53151
43106,53172
43113,53187
43124,53194
43107,53200
43112,53200
43131,53221
43122,53218
43132,53247
43136,53235
43143,53239
43144,53261
43150,53264
43147,53272
43160,53299
43163,53314
43171,53325
43172,53313
43187,53348
43189,53359
43187,53348
43192,53370
43183,53357
43179,53331
43171,53292
43147,53262
43139,53206
43124,53172
43127,53147
43112,53111
43126,53088
43117,53068
43100,53054
43111,53053
43113,53039
43109,53053
43128,53068
43120,53060
43132,53062
43129,53070
43137,53073
43135,53076
43122,53078
43130,53093
43120,53089
43115,53104
43129,53116
43134,53084
43130,53077
43118,53031
43147,53037
43137,53050
43131,53063
43133,53062
43134,53090
43140,53078
43133,53098
43132,53077
43148,53103
43183,53095
43169,53086
43139,53101
43119,53083
43148,53095
43139,53082
43145,53090
43141,53085
43132,53093
43149,53080
43143,53085
43152,53084
43148,53075
43147,53088
43156,53076
43145,53092
43158,53084
43160,53087
43171,53124
43157,53127
43173,53120
43179,53120
43183,53147
43175,53165
43181,53163
43179,53157
43207,53167
43211,53175
43199,53183
43211,53193
43208,53211
43225,53204
43225,53212
43228,53239
43227,53229
43217,53230
43232,53233
43232,53249
43236,53244
43234,53259
43236,53258
43253,53268
43247,53285
43264,53301
43252,53306
43263,53310
43242,53312
43266,53319
43266,53333
43270,53343
43270,53362
43272,53358
43280,53357
43277,53368
43295,53366
43285,53360
43280,53351
43272,53337
43263,53304
43249,53279
43222,53241
43227,53213
43212,53188
43207,53177
43221,53154
43207,53125
43198,53134
43198,53124
43201,53128
43205,53139
43212,53142
43206,53157
43218,53144
43218,53160
43229,53163
43209,53169
43224,53174
43221,53178
43220,53165
43224,53165
43213,53173
43222,53184
43218,53164
43217,53163
43229,53166
43226,53162
43227,53177
43236,53181
43241,53189
43234,53200
43241,53209
43247,53212
43235,53205
43237,53213
43251,53208
43253,53231
43246,53220
43251,53215
43256,53210
43230,53230
43240,53223
43243,53211
43257,53217
43252,53223
43248,53237
43243,53246
43257,53246
43252,53245
43256,53260
43255,53258
43262,53288
43257,53290
43268,53292
43267,53297
43270,53295
43270,53321
43270,53315
43275,53329
43280,53334
43279,53350
43285,53355
43287,53363
43287,53367
43300,53362
43298,53372
43309,53389
43297,53387
43293,53395
43292,53412
43320,53412
43309,53422
43313,53429
43323,53432
43308,53446
43324,53444
43311,53450
43330,53444
43313,53460
43312,53448
43302,53423
43292,53406
43288,53368
43279,53355
43270,53338
43269,53306
43266,53304
43259,53289
43259,53310
43269,53293
43254,53302
43259,53311
43262,53337
43260,53315
43284,53329
43279,53333
43268,53346
43282,53352
43275,53336
43277,53349
43277,53337
43275,53348
43270,53347
43261,53327
43293,53364
43272,53342
43279,53335
43278,53348
43270,53360
43272,53362
43285,53370
43284,53387
43286,53400
43308,53402
43301,53399
43294,53413
43294,53414
43307,53414
43287,53411
43298,53422
43295,53411
43291,53409
43302,53422
43292,53418
43301,53426
43299,53435
43311,53445
43297,53447
43314,53453
43297,53457
43309,53454
43314,53467
43315,53491
43314,53487
43315,53500
43339,53485
43319,53521
43330,53506
43333,53526
43334,53534
43330,53540
43344,53555
43336,53553
43339,53563
43340,53565
43351,53571
43345,53573
43357,53586
43357,53589
43357,53602
43361,53598
43353,53607
43355,53618
43361,53630
43368,53628
43365,53641
43363,53639
43369,53648
43380,53649
43380,53670
43356,53686
43361,53674
43366,53690
43367,53688
43386,53688
43372,53688
43377,53740
43375,53699
43388,53727
43394,53722
43376,53726
43392,53725
43393,53747
43401,53742
43394,53761
43393,53767
43410,53766
43414,53773
43392,53781
43414,53778
43398,53802
43393,53808
43404,53822
43411,53847
43415,53848
43408,53836
43415,53824
43424,53823
43426,53852
43437,53867
43411,53878
43433,53884
43428,53899
43438,53912
43433,53918
43442,53910
43474,53911
43457,53927
43432,53940
43417,53955
43451,53932
43453,53943
43443,53951
43468,53961
43442,53987
43449,53972
43456,53979
43466,53984
43468,53993
43444,53971
43447,53953
43433,53928
43420,53885
43421,53870
43396,53830
43391,53826
43390,53811
43397,53815
43396,53804
43393,53828
43402,53821
43401,53833
43404,53861
43409,53863
43413,53876
43422,53893
43432,53885
43421,53894
43427,53903
43419,53898
43432,53908
43436,53909
43443,53900
43429,53907
43427,53906
43422,53898
43423,53891
43428,53891
43427,53919
43433,53907
43414,53923
43432,53934
43439,53951
43443,53950
43440,53959
43444,53966
43445,53971
43463,53949
43448,53983
43474,53986
43452,53978
43465,53979
43470,53981
43472,53984
43485,54013
43481,54011
43498,54011
43480,54029
43502,54030
43514,54047
43513,54056
43518,54070
43538,54093
43542,54084
43541,54087
43544,54094
43549,54135
43562,54138
43549,54143
43547,54136
43552,54139
43552,54163
43555,54162
43554,54169
43553,54161
43552,54163
43543,54179
43534,54162
43534,54168
43534,54158
43526,54154
43523,54165
43510,54164
43523,54148
43517,54151
43526,54149
43521,54148
43517,54143
43514,54147
43527,54169
43527,54174
43535,54182
43517,54176
43549,54209
43537,54209
43539,54205
43535,54212
43556,54216
43551,54234
43555,54236
43548,54230
43553,54250
43553,54238
43542,54249
43549,54260
43545,54254
43548,54263
43558,54269
43537,54273
43556,54278
43554,54283
43559,54285
43542,54287
43576,54288
43551,54312
43559,54300
43549,54297
43562,54299
43561,54319
43554,54286
43545,54298
43551,54282
43538,54258
43535,54248
43524,54200
43512,54176
43503,54176
43499,54145
43491,54155
43471,54151
43496,54138
43497,54138
43487,54153
43496,54150
43490,54164
43493,54159
43493,54170
43500,54176
43506,54181
43505,54164
43509,54200
43502,54181
43507,54192
43496,54174
43498,54187
43497,54182
43519,54186
43511,54185
43524,54200
43511,54173
43505,54206
43505,54192
43509,54206
43511,54220
43497,54221
43509,54216
43518,54219
43511,54235
43519,54227
43493,54218
43509,54223
43503,54219
43500,54222
43508,54201
43514,54213
43509,54206
43508,54193
43504,54214
43510,54217
43510,54215
43515,54236
43511,54225
43508,54237
43513,54232
43498,54240
43506,54242
43501,54248
43506,54244
43515,54251
43516,54245
43518,54243
43515,54263
43507,54265
43501,54274
43515,54276
43509,54285
43520,54286
43518,54280
43507,54293
43519,54294
43504,54266
43514,54302
43523,54294
43508,54299
43521,54304
43530,54298
43520,54306
43519,54311
43505,54302
43507,54324
43509,54306
43514,54318
43510,54322
43517,54333
43511,54327
43535,54305
43507,54302
43497,54290
43494,54265
43476,54253
43464,54222
43462,54200
43459,54191
43458,54167
43470,54171
43459,54170
43456,54158
43459,54169
43456,54175
43461,54179
43455,54171
43450,54184
43459,54189
43469,54166
43441,54168
43452,54183
43446,54152
43441,54177
43441,54171
43463,54179
43450,54171
43453,54153
43423,54146
43443,54153
43428,54153
43443,54140
43420,54156
43442,54163
43445,54182
43448,54188
43445,54179
43431,54139
43432,54127
43440,54157
43428,54177
43432,54159
43429,54164
43429,54164
43425,54168
43418,54144
43429,54158
43429,54162
43472,54170
43431,54167
43418,54172
43421,54174
43396,54177
43405,54189
43420,54185
43423,54180
43439,54186
43425,54199
43423,54196
43436,54196
43431,54206
43426,54221
43425,54215
43432,54218
43429,54214
43422,54224
43443,54237
43431,54228
43440,54232
43441,54234
43427,54237
43421,54234
43431,54230
43434,54243
43435,54251
43423,54233
43423,54237
43436,54248
43430,54259
43414,54267
43425,54262
43424,54253
43433,54257
43424,54267
43418,54266
43423,54261
43432,54266
43423,54270
43423,54279
43418,54293
43429,54291
43421,54296
43404,54303
43438,54286
43421,54291
43431,54297
43419,54314
43425,54316
43423,54320
43413,54304
43440,54321
43430,54321
43424,54329
43427,54341
43426,54342
43436,54341
43435,54342
43435,54351
43426,54355
43437,54337
43435,54357
43438,54362
43439,54357
43440,54360
43441,54378
43440,54377
43438,54376
43425,54355
43432,54368
43416,54362
43413,54354
43393,54307
43382,54277
43387,54257
43361,54225
43361,54203
43348,54177
43352,54166
43344,54155
43341,54160
43346,54141
43338,54140
43341,54146
43335,54158
43341,54156
43344,54170
43352,54185
43343,54172
43350,54170
43349,54164
43343,54169
43355,54179
43328,54171
43334,54169
43338,54147
43329,54159
43328,54162
43326,54159
43322,54135
43322,54153
43318,54136
43333,54167
43334,54154
43325,54168
43321,54155
43334,54156
43332,54165
43321,54155
43320,54167
43317,54160
43331,54154
43314,54150
43317,54167
43325,54148
43319,54165
43310,54151
43300,54160
43322,54149
43301,54153
43313,54149
43317,54161
43295,54152
43307,54143
43300,54162
43309,54150
43307,54169
43289,54182
43295,54185
43295,54195
43291,54184
43292,54170
43303,54188
43302,54203
43310,54183
43299,54183
43290,54197
43301,54198
43309,54193
43302,54191
43295,54193
43300,54188
43293,54197
43296,54188
43300,54205
43293,54209
43303,54203
43282,54230
43289,54209
43303,54233
43277,54218
43300,54235
43294,54219
43290,54217
43274,54209
43268,54187
43262,54162
43258,54131
43237,54097
43240,54078
43226,54056
43232,54043
43222,54027
43200,54027
43193,54024
43205,54011
43207,54030
43196,54012
43208,54008
43221,54012
43194,54024
43214,54012
43206,54017
43201,54032
43210,54022
43198,54001
43199,54005
43185,54003
43184,53995
43173,53990
43183,53979
43182,53973
43172,53992
43171,53989
43182,53985
43179,53997
43187,53979
43162,53985
43168,53985
43163,53982
43177,53984
43148,53993
43153,53978
43158,53980
43153,53966
43159,53961
43155,53951
43143,53960
43133,53953
43150,53963
43146,53958
43149,53950
43137,53939
43135,53939
43139,53954
43138,53959
43130,53947
43142,53953
43142,53957
43128,53956
43125,53967
43117,53950
43126,53958
43127,53954
43140,53972
43126,53980
43126,53965
43128,53969
43106,53980
43110,53979
43125,53964
43117,53987
43110,53972
43126,53976
43129,53991
43113,53970
43107,53978
43113,53981
43109,53987
43104,53954
43095,53910
43076,53890
43077,53861
43059,53825
43043,53804
43042,53791
43036,53788
43022,53756
43010,53768
43032,53754
43036,53734
43019,53754
43029,53758
43023,53740
43018,53749
43018,53755
43009,53768
43005,53758
42987,53725
42997,53681
42993,53686
42992,53671
42983,53704
42987,53693
42980,53672
42977,53689
42990,53690
42997,53666
42989,53692
43020,53686
43031,53684
42976,53690
42980,53707
43076,53890
42960,53690
42974,53687
42960,53674
42975,53683
42974,53675
42974,53678
42979,53668
42976,53652
42965,53666
42967,53664
42974,53668
42962,53667
42964,53663
42961,53675
42961,53672
42964,53677
42957,53678
42953,53673
42955,53683
42952,53680
42977,53689
42959,53695
42962,53693
42973,53709
42972,53692
42959,53707
42988,53705
42962,53691
42954,53706
42965,53719
42971,53721
42962,53733
42973,53720
42992,53737
42964,53743
42968,53748
42961,53747
42970,53745
42980,53745
42963,53726
42969,53699
42944,53661
42946,53658
42926,53594
42908,53606
42898,53577
42902,53548
42890,53547
42907,53532
42891,53539
42900,53522
42892,53528
42899,53523
42897,53538
42898,53521
42906,53519
42893,53527
42897,53534
42895,53525
42893,53521
42894,53533
42891,53513
42872,53513
42900,53506
42879,53514
42902,53515
42882,53500
42885,53513
42880,53510
42881,53527
42891,53519
42882,53520
42897,53526
42891,53518
42891,53534
42891,53523
42889,53523
42888,53535
42883,53528
42876,53513
42875,53518
42885,53534
42881,53517
42879,53523
42875,53519
42885,53509
42892,53516
42898,53512
42882,53534
42884,53530
42890,53531
42886,53542
42885,53541
42895,53537
42892,53551
42890,53553
42890,53564
42897,53575
42893,53567
42904,53574
42906,53581
42896,53579
42904,53600
42902,53582
42891,53591
42902,53605
42901,53588
42910,53605
42904,53594
42892,53621
42913,53618
42910,53611
42918,53633
42916,53613
42914,53625
42910,53643
42909,53652
42916,53646
42905,53632
42895,53610
42879,53593
42866,53568
42877,53537
42862,53517
42845,53486
42845,53475
42841,53458
42834,53458
42842,53466
42842,53454
42839,53454
42848,53457
42843,53461
42851,53457
42858,53462
42844,53468
42854,53483
42848,53480
42841,53485
42828,53470
42845,53488
42840,53474
42850,53479
42858,53465
42842,53465
42835,53477
42849,53481
42849,53486
42851,53480
42857,53491
42838,53486
42853,53493
42844,53511
42850,53508
42850,53489
42851,53505
42849,53497
42843,53491
42858,53506
42837,53499
42835,53516
42846,53499
42825,53492
42843,53516
42849,53507
42842,53492
42832,53511
42850,53520
42862,53519
42833,53523
42840,53529
42857,53520
42859,53530
42860,53531
42862,53539
42867,53559
42844,53568
42863,53557
42890,53554
42867,53574
42854,53577
42863,53589
42869,53587
42870,53596
42865,53582
42874,53583
42870,53592
42873,53615
42873,53610
42880,53616
42883,53630
42870,53636
42875,53628
42867,53620
42864,53623
42846,53590
42839,53556
42844,53539
42838,53515
42816,53504
42811,53487
42820,53473
42815,53464
42804,53471
42815,53459
42809,53450
42800,53468
42814,53475
42815,53478
42823,53487
42816,53484
42824,53473
42830,53488
42812,53489
42823,53478
42810,53479
42820,53490
42807,53479
42820,53460
42811,53474
42815,53485
42809,53480
42812,53483
42821,53482
42803,53515
42819,53503
42824,53511
42817,53486
42816,53515
42813,53491
42819,53517
42820,53511
42823,53507
42826,53511
42825,53534
42829,53517
42821,53516
42808,53534
42816,53530
42839,53523
42820,53527
42819,53539
42822,53542
42833,53565
42839,53569
42829,53531
42847,53547
42836,53541
42825,53572
42840,53560
42835,53581
42837,53588
42836,53584
42843,53604
42839,53617
42865,53605
42889,53615
42843,53600
42856,53631
42840,53638
42840,53645
42841,53647
42850,53659
42861,53660
42850,53655
42853,53662
42869,53667
42870,53666
42859,53683
42882,53686
42887,53678
42877,53690
42879,53688
42873,53718
42871,53690
42859,53678
42846,53664
42844,53628
42840,53625
42834,53581
42824,53588
42821,53582
42831,53574
42814,53558
42829,53563
42821,53567
42816,53568
42836,53596
42836,53576
42817,53588
42839,53602
42839,53588
42823,53610
42836,53603
42849,53612
42838,53604
42827,53608
42828,53589
42837,53587
42833,53582
42832,53603
42834,53605
42841,53605
42844,53604
42834,53604
42856,53619
42842,53634
42834,53626
42844,53628
42868,53654
42855,53657
42853,53652
42865,53637
42847,53654
42867,53648
42860,53637
42866,53645
42857,53656
42852,53656
42871,53646
42856,53658
42862,53654
42864,53668
42870,53672
42866,53690
42874,53690
42871,53689
42871,53689
42881,53686
42881,53701
42875,53703
42881,53703
42872,53726
42902,53726
42882,53733
42906,53742
42891,53743
42892,53754
42886,53772
42901,53772
42905,53779
42903,53778
42913,53792
42894,53782
42908,53786
42902,53788
42903,53802
42907,53803
42920,53818
42906,53806
42927,53830
42914,53811
42915,53841
42913,53827
42920,53849
42916,53846
42937,53847
42915,53846
42930,53852
42915,53850
42932,53838
42914,53820
42892,53786
42885,53763
42895,53752
42874,53717
42875,53718
42878,53715
42895,53707
42874,53721
42868,53704
42862,53714
42882,53700
42872,53728
42873,53719
42888,53732
42886,53727
42885,53735
42896,53748
42872,53737
42891,53745
42890,53731
42891,53733
42884,53725
42883,53726
42900,53714
42881,53735
42895,53722
42886,53757
42879,53743
42891,53745
42891,53739
42891,53759
42895,53757
42890,53758
42886,53752
42907,53758
42887,53745
42886,53746
42887,53757
42878,53744
42899,53738
42908,53759
42889,53735
42895,53757
42890,53760
42889,53767
42889,53766
42909,53756
42903,53767
42913,53774
42897,53767
42906,53780
42893,53774
42911,53789
42912,53788
42905,53787
42920,53810
42914,53806
42911,53802
42917,53820
42912,53833
42941,53829
42914,53836
42910,53813
42919,53842
42927,53848
42922,53839
42929,53842
42940,53859
42922,53841
42919,53860
42929,53863
42931,53868
42937,53898
42951,53885
42921,53878
42939,53893
42944,53893
42932,53876
42932,53866
42922,53836
42904,53797
42898,53791
42885,53772
42901,53760
42878,53734
42879,53714
42875,53714
42879,53713
42869,53698
42858,53707
42878,53704
42863,53715
42882,53714
42874,53721
42866,53709
42883,53702
42861,53711
42859,53707
42878,53707
42883,53688
42882,53683
42869,53676
42882,53676
42875,53686
42858,53675
42878,53682
42878,53686
42883,53704
42881,53696
42871,53690
42868,53695
42884,53708
42888,53698
42881,53689
42883,53717
42893,53705
42887,53704
42889,53695
42872,53676
42889,53704
42879,53695
42882,53701
42864,53683
42868,53695
42872,53710
42871,53689
42880,53710
42891,53703
42875,53716
42896,53712
42897,53717
42887,53709
42894,53706
42903,53733
42900,53747
42894,53728
42895,53739
42873,53748
42896,53755
42893,53770
42904,53784
42893,53780
42903,53736
42918,53756
42901,53755
42901,53783
42918,53780
42920,53795
42910,53788
42921,53781
42925,53815
42916,53800
42962,53801
42933,53800
42909,53820
42904,53822
42919,53830
42933,53819
42925,53841
42944,53840
42940,53844
42949,53855
42948,53853
42946,53843
42953,53851
42942,53879
42961,53862
42955,53882
42942,53874
42954,53883
42952,53890
42962,53887
42970,53913
42959,53906
42966,53907
42960,53912
42978,53933
42962,53933
42978,53936
42977,53933
42976,53940
42982,53951
42977,53961
42997,53958
42985,53966
42981,53956
42984,53987
42984,53989
42993,53974
42988,53998
43023,54008
43010,54025
43002,54014
43001,54019
43037,54009
43008,54015
42989,54004
42998,53964
42963,53914
42960,53894
42951,53858
42942,53836
42958,53831
42926,53797
42924,53796
42920,53777
42930,53774
42923,53768
42926,53763
42912,53762
42918,53769
42934,53784
42943,53782
42941,53769
42917,53780
42934,53773
42927,53777
42932,53775
42926,53769
42931,53781
42928,53761
42927,53773
42916,53759
42925,53754
42936,53765
42928,53757
42928,53772
42933,53777
42933,53766
42940,53785
42953,53759
42939,53770
42947,53780
42931,53782
42941,53794
42939,53789
42930,53792
42946,53772
42928,53776
42925,53784
42947,53785
42928,53765
42942,53775
42946,53761
42926,53784
42938,53775
42951,53783
42950,53776
42933,53770
42947,53779
42947,53782
42943,53790
42958,53792
42943,53782
42949,53790
42939,53806
42961,53808
42961,53809
42956,53813
42958,53807
42963,53835
42968,53833
42954,53839
42956,53822
42961,53828
42962,53847
42963,53832
42967,53859
42979,53861
42981,53859
42959,53863
42972,53864
42976,53864
42986,53870
42975,53867
42979,53898
42975,53871
42986,53892
42991,53882
43004,53882
42995,53912
42998,53913
42992,53906
42989,53904
42994,53917
42990,53933
43003,53908
42991,53929
43007,53932
43002,53933
43013,53934
42998,53939
43022,53948
42995,53962
43012,53944
43014,53956
43005,53964
43005,53965
43024,53991
43006,53977
43019,53985
43028,53981
43012,53989
43002,53951
42993,53931
42987,53911
42972,53869
42972,53843
42956,53807
42955,53781
42949,53756
42923,53741
42937,53725
42919,53716
42923,53708
42925,53705
42905,53700
42910,53693
42931,53689
42934,53696
42922,53691
42925,53705
42922,53704
42925,53693
42932,53722
42919,53700
42939,53696
42915,53698
42932,53699
42922,53701
42922,53695
42922,53691
42911,53701
42929,53718
42937,53716
42936,53695
42929,53702
42932,53705
42938,53727
42933,53721
42927,53710
42921,53721
42920,53723
42920,53700
42928,53705
42924,53692
42920,53687
42923,53694
42936,53698
42931,53688
42923,53683
42912,53687
42936,53693
42943,53699
42910,53698
42927,53706
42931,53699
42943,53720
42946,53703
42938,53700
42934,53710
42940,53720
42931,53735
42941,53736
42948,53732
42944,53734
42940,53752
42945,53755
42943,53748
42966,53766
42963,53755
42944,53761
42941,53776
42954,53774
42947,53760
42952,53782
42971,53779
42962,53779
42972,53806
42985,53810
42963,53803
42962,53792
42964,53807
42965,53804
42973,53810
42973,53811
42980,53831
42973,53818
42957,53829
42980,53843
42984,53843
42977,53842
42983,53827
42952,53806
42939,53769
42944,53745
42913,53713
42882,53694
42917,53671
42893,53641
42903,53628
42888,53573
42895,53534
42882,53561
42888,53553
42889,53564
42895,53567
42888,53563
42884,53556
42874,53569
42888,53559
42893,53566
42916,53545
42896,53558
42873,53532
42855,53519
42870,53534
42858,53540
42881,53529
42875,53506
42869,53529
42888,53536
42879,53514
42882,53541
42878,53520
42895,53534
42904,53532
42884,53539
42881,53538
42878,53531
42875,53538
42875,53544
42894,53541
42881,53520
42890,53526
42883,53518
42867,53521
42879,53507
42884,53518
42864,53520
42877,53521
42869,53535
42887,53528
42878,53544
42887,53517
42899,53530
42900,53540
42898,53539
42896,53557
42908,53546
42906,53559
42891,53554
42899,53567
42894,53577
42914,53577
42904,53565
42904,53586
42897,53589
42921,53590
42921,53589
42917,53606
42927,53605
42913,53602
42913,53614
42919,53615
42926,53630
42928,53620
42931,53627
42938,53647
42931,53651
42936,53641
42948,53658
42946,53668
42940,53669
42946,53671
42954,53689
42949,53688
42949,53701
42959,53701
42958,53709
42956,53699
42964,53714
42970,53716
42952,53735
42970,53729
42955,53730
42967,53749
42978,53750
42974,53758
42965,53761
42977,53748
42954,53736
42946,53703
42940,53662
42926,53604
42916,53576
42900,53537
42900,53517
42884,53483
42863,53476
42868,53453
42878,53442
42858,53423
42880,53423
42864,53427
42860,53422
42872,53434
42878,53421
42869,53435
42859,53443
42879,53408
42867,53437
42871,53413
42869,53426
42865,53424
42871,53423
42872,53411
42872,53415
42863,53418
42866,53407
42867,53410
42851,53413
42859,53413
42867,53417
42874,53416
42860,53428
42888,53439
42879,53435
42886,53424
42870,53436
42886,53419
42864,53409
42884,53427
42858,53429
42864,53400
42873,53388
42875,53383
42853,53389
42854,53398
42872,53418
42857,53406
42854,53401
42850,53402
42859,53418
42879,53406
42873,53427
42877,53427
42884,53428
42884,53423
42873,53424
42871,53442
42890,53437
42876,53455
42892,53442
42887,53456
42880,53441
42874,53455
42894,53457
42898,53475
42891,53463
42909,53478
42907,53477
42902,53485
42904,53493
42905,53499
42901,53488
42908,53505
42896,53501
42915,53503
42914,53496
42913,53513
42910,53523
42941,53525
42915,53530
42911,53521
42912,53522
42917,53538
42927,53535
42916,53545
42927,53547
42920,53560
42933,53529
42903,53506
42890,53493
42896,53450
42854,53385
42855,53353
42842,53333
42840,53284
42840,53256
42824,53241
42818,53223
42827,53210
42818,53208
42815,53206
42825,53205
42824,53211
42813,53207
42822,53213
42808,53209
42820,53211
42809,53200
42806,53200
42815,53198
42800,53202
42817,53199
42797,53186
42793,53186
42807,53180
42799,53172
42789,53174
42802,53185
42799,53198
42808,53183
42794,53182
42803,53189
42807,53190
42807,53193
42799,53188
42806,53194
42808,53176
42804,53159
42805,53175
42787,53175
42785,53158
42788,53158
42788,53161
42802,53157
42803,53162
42794,53159
42808,53189
42798,53177
42789,53161
42793,53167
42788,53176
42783,53168
42798,53192
42806,53185
42809,53181
42821,53186
42809,53200
42806,53208
42826,53172
42818,53201
42818,53205
42814,53224
42832,53219
42828,53239
42813,53230
42824,53235
42831,53245
42850,53247
42855,53259
42841,53251
42852,53270
42845,53272
42830,53280
42808,53270
42847,53284
42849,53284
42850,53311
42858,53288
42864,53283
42853,53288
42858,53315
42844,53312
42846,53304
42854,53286
42832,53242
42831,53189
42805,53173
42785,53122
42787,53088
42767,53067
42735,53038
42751,53031
42756,52992
42737,52981
42747,52979
42747,52970
42732,52946
42754,52970
42737,52967
42740,52965
42737,52960
42743,52950
42740,52970
42733,52964
42736,52950
42735,52934
42731,52933
42725,52927
42738,52927
42731,52910
42730,52917
42719,52909
42733,52914
42737,52924
42723,52929
42737,52933
42735,52936
42736,52936
42737,52947
42746,52944
42753,52938
42745,52938
42732,52942
42739,52945
42736,52945
42744,52940
42732,52935
42734,52936
42734,52931
42736,52948
42744,52936
42744,52938
42750,52930
42758,52948
42755,52934
42760,52957
42752,52965
42754,52957
42755,52961
42763,52980
42761,52975
42759,52984
42770,52984
42772,52996
42775,53007
42779,53022
42793,53013
42792,53026
42796,53029
42779,53042
42795,53047
42792,53053
42788,53046
42796,53061
42793,53070
42809,53063
42808,53089
42812,53080
42819,53101
42816,53094
42820,53101
42831,53119
42823,53114
42827,53137
42846,53139
42821,53135
42833,53132
42840,53173
42839,53170
42847,53172
42841,53168
42862,53182
42855,53196
42864,53203
42862,53188
42859,53224
42859,53200
42860,53227
42883,53245
42867,53239
42886,53245
42890,53260
42888,53271
42906,53266
42886,53282
42890,53284
42895,53300
42905,53288
42900,53309
42891,53317
42907,53314
42916,53318
42921,53333
42900,53336
42920,53355
42925,53351
42918,53363
42934,53383
42910,53380
42938,53392
42929,53401
42929,53407
42934,53417
42938,53412
42932,53413
42930,53387
42909,53345
42894,53292
42880,53237
42855,53227
42842,53174
42840,53136
42833,53111
42841,53073
42822,53061
42811,53043
42826,53057
42829,53045
42821,53055
42822,53057
42827,53058
42833,53056
42845,53043
42831,53071
42831,53046
42827,53065
42833,53056
42817,53052
42833,53045
42804,53039
42824,53044
42828,53061
42816,53037
42826,53040
42824,53046
42822,53044
42824,53062
42822,53052
42831,53062
42828,53070
42832,53079
42813,53066
42844,53062
42835,53056
42809,53053
42824,53060
42837,53052
42832,53038
42819,53042
42829,53041
42818,53030
42822,53032
42827,53035
42817,53035
42825,53029
42841,53046
42820,53053
42823,53040
42831,53050
42846,53066
42841,53055
42829,53070
42851,53067
42851,53075
42831,53071
42841,53092
42838,53090
42855,53096
42856,53104
42859,53090
42861,53117
42861,53124
42863,53125
42852,53137
42868,53133
42858,53140
42855,53143
42860,53148
42870,53153
42868,53151
42876,53171
42882,53165
42864,53188
42883,53172
42893,53184
42899,53186
42883,53195
42894,53202
42889,53219
42895,53220
42906,53233
42895,53237
42899,53246
42918,53229
42882,53214
42878,53185
42875,53148
42845,53112
42843,53079
42833,53041
42825,52995
42821,52979
42801,52943
42806,52942
42790,52924
42790,52905
42800,52905
42803,52875
42791,52893
42804,52894
42795,52898
42783,52906
42805,52894
42790,52928
42806,52900
42787,52893
42794,52892
42790,52889
42778,52876
42792,52880
42789,52892
42794,52875
42788,52888
42788,52886
42792,52891
42791,52895
42790,52888
42798,52903
42814,52897
42802,52893
42793,52912
42790,52919
42806,52923
42798,52933
42796,52902
42784,52873
42787,52855
42793,52892
42799,52895
42794,52903
42799,52892
42802,52916
42786,52890
42804,52919
42805,52905
42842,52926
42830,52919
42807,52929
42795,52940
42795,52945
42795,52933
42806,52944
42819,52950
42833,52959
42832,52991
42820,52973
42839,52993
42851,52985
42835,53000
42822,53015
42854,53009
42839,53008
42856,53030
42851,53029
42861,53043
42862,53040
42858,53037
42861,53043
42855,53064
42876,53061
42871,53067
42857,53079
42868,53076
42878,53088
42863,53100
42875,53085
42869,53104
42882,53131
42887,53132
42896,53121
42884,53137
42894,53149
42910,53149
42894,53167
42891,53177
42898,53167
42896,53165
42893,53170
42892,53158
42859,53095
42864,53055
42852,53037
42832,52998
42822,52951
42801,52923
42810,52885
42800,52873
42798,52856
42798,52843
42791,52854
42805,52830
42789,52840
42799,52841
42786,52827
42799,52823
42791,52836
42784,52834
42782,52849
42794,52833
42791,52837
42788,52825
42786,52821
42796,52815
42781,52802
42791,52802
42796,52796
42796,52809
42807,52795
42783,52810
42781,52794
42792,52826
42811,52820
42807,52833
42800,52828
42808,52816
42816,52818
42806,52834
42818,52840
42809,52846
42784,52849
42807,52827
42812,52825
42793,52838
42809,52826
42803,52841
42801,52840
42816,52831
42823,52845
42819,52839
42804,52860
42821,52865
42826,52851
42833,52852
42827,52881
42842,52874
42843,52895
42854,52906
42847,52913
42841,52899
42844,52913
42857,52930
42847,52932
42860,52942
42867,52962
42877,52955
42858,52958
42876,52981
42868,52968
42879,53000
42879,52994
42890,53022
42885,53009
42891,53022
42883,53035
42898,53033
42905,53039
42900,53049
42898,53074
42905,53065
42910,53074
42916,53076
42907,53087
42901,53081
42920,53104
42912,53094
42916,53112
42928,53111
42935,53130
42932,53135
42950,53149
42940,53153
42943,53165
42947,53177
42934,53178
42954,53184
42954,53179
42960,53196
42968,53199
42964,53219
42966,53225
42977,53234
42976,53231
42984,53240
42988,53262
42991,53272
42993,53289
42997,53276
42999,53290
43011,53311
43001,53306
42997,53323
43007,53331
43014,53342
43018,53340
43021,53355
43031,53362
43014,53360
43021,53381
43018,53361
43002,53339
43011,53313
42990,53263
42961,53230
42957,53182
42938,53154
42946,53126
42932,53110
42916,53076
42915,53080
42923,53052
42944,53056
42930,53050
42933,53063
42942,53055
42924,53059
42938,53066
42927,53061
42935,53072
42937,53066
42938,53080
42939,53058
42934,53073
42924,53068
42925,53050
42935,53068
42946,53047
42941,53068
42936,53054
42935,53063
42929,53061
42928,53066
42948,53088
42947,53092
42931,53096
42954,53085
42937,53072
42947,53092
42936,53088
42950,53089
42936,53084
42932,53063
42928,53075
42929,53066
42940,53057
42942,53047
42927,53061
42944,53063
42929,53077
42935,53056
42945,53079
42948,53085
42941,53084
42934,53109
42970,53093
42949,53099
42952,53116
42951,53111
42968,53106
42958,53126
42952,53137
42975,53138
42971,53131
42980,53148
42983,53184
42961,53169
42977,53173
42972,53167
42963,53184
42963,53171
42983,53189
42989,53205
42986,53207
42997,53218
42990,53198
42982,53202
42993,53215
43002,53217
43005,53245
42994,53261
43014,53248
43016,53259
43016,53278
43000,53286
43020,53276
43009,53244
43012,53231
43012,53235
42989,53203
42978,53187
42986,53162
42949,53137
42949,53115
42941,53089
42967,53069
42954,53052
42949,53045
42951,53022
42943,53018
42900,53021
42918,53022
42929,53017
42940,53014
42945,53013
42930,53013
42938,53004
42934,53001
42940,53001
42931,52999
42924,52996
42914,52993
42932,52978
42903,52996
42917,52981
42926,52995
42937,52971
42930,53001
42925,52988
42915,52999
42933,53001
42926,53003
42933,53008
42929,53010
42936,53025
42936,53022
42920,53030
42920,52999
42935,53021
42945,53022
42944,53026
42921,53018
42917,53019
42943,53009
42931,53010
42951,53024
42943,53031
42943,53038
42949,53032
42948,53048
42946,53035
42949,53061
42939,53043
42942,53072
42964,53085
42961,53082
42954,53087
42949,53092
42979,53105
42962,53101
42979,53117
42962,53123
42971,53132
42979,53134
42980,53143
42989,53154
42987,53144
42989,53143
42997,53168
42985,53176
42986,53175
42989,53179
42990,53191
43004,53189
42998,53202
43006,53223
43005,53213
43014,53229
43013,53231
43010,53234
43022,53239
43023,53260
43016,53248
43025,53276
43031,53265
43030,53274
43026,53275
43040,53291
43019,53298
43052,53300
43042,53297
43040,53315
43051,53332
43032,53316
43053,53328
43068,53346
43045,53364
43066,53363
43073,53366
43075,53370
43072,53387
43078,53389
43067,53391
43072,53408
43074,53415
43079,53444
43081,53434
43097,53455
43103,53438
43082,53466
43086,53467
43082,53462
43103,53491
43109,53505
43104,53499
43122,53502
43128,53514
43147,53523
43121,53529
43124,53541
43133,53546
43130,53543
43134,53556
43139,53559
43130,53561
43128,53536
43097,53498
43117,53467
43079,53410
43087,53403
43073,53367
43060,53346
43061,53317
43051,53307
43041,53276
43044,53265
43039,53250
43039,53272
43046,53266
43048,53253
43044,53273
43057,53267
43047,53266
43049,53233
43047,53266
43046,53272
43043,53249
43037,53256
43043,53245
43039,53243
43028,53234
43042,53224
43036,53225
43041,53227
43036,53229
43041,53231
43032,53247
43038,53226
43039,53244
43039,53244
43039,53246
43041,53254
43024,53251
43045,53239
43039,53247
43049,53250
43048,53230
43036,53228
43036,53218
43033,53214
43027,53206
43021,53214
43034,53224
43022,53216
43037,53223
43033,53223
43033,53233
43043,53224
43045,53229
43051,53225
43053,53236
43042,53251
43045,53259
43052,53246
43068,53248
43043,53255
43050,53275
43051,53272
43049,53268
43044,53280
43066,53294
43057,53291
43065,53292
43051,53305
43069,53296
43060,53300
43072,53325
43075,53311
43068,53324
43081,53317
43084,53311
43073,53320
43079,53334
43076,53327
43084,53336
43084,53349
43089,53349
43086,53358
43080,53363
43095,53361
43089,53367
43094,53375
43093,53363
43092,53387
43097,53387
43128,53390
43113,53383
43089,53387
43105,53408
43101,53418
43115,53423
43111,53422
43113,53420
43104,53446
43110,53456
43108,53445
43106,53454
43093,53447
43091,53430
43101,53410
43092,53382
43067,53345
43063,53324
43040,53284
43045,53268
43029,53259
43033,53216
43018,53180
43017,53179
43020,53170
43005,53145
43021,53152
43013,53174
43031,53164
43022,53175
43020,53151
43022,53172
43028,53163
43019,53161
43015,53177
43012,53161
43026,53149
43025,53141
43019,53138
43025,53162
43021,53146
43027,53116
43022,53116
43024,53129
43002,53152
43025,53146
43024,53152
43027,53151
43017,53166
43019,53155
43023,53146
43046,53150
43040,53147
43019,53139
43016,53152
42980,53134
43022,53141
43002,53143
43013,53147
43036,53145
43025,53129
43032,53144
43021,53140
43042,53165
43024,53151
43021,53155
43024,53158
43018,53150
43037,53166
43032,53167
43040,53181
43027,53189
43026,53198
43034,53188
43040,53180
43036,53215
43018,53200
43056,53203
43043,53225
43059,53230
43049,53225
43065,53217
43063,53229
43059,53242
43062,53238
43055,53265
43060,53260
43070,53257
43061,53270
43060,53273
43066,53270
43067,53287
43078,53288
43059,53291
43074,53291
43080,53307
43071,53293
43072,53307
43081,53310
43092,53316
43093,53329
43073,53323
43096,53330
43093,53348
43088,53352
43072,53343
43092,53347
43097,53373
43091,53364
43109,53375
43101,53378
43093,53391
43094,53398
43106,53392
43099,53391
43109,53413
43120,53413
43116,53428
43128,53435
43120,53424
43124,53455
43120,53453
43118,53452
43139,53447
43130,53480
43122,53493
43143,53478
43135,53467
43128,53465
43114,53437
43103,53405
43095,53371
43099,53335
43077,53301
43073,53265
43048,53226
43051,53208
43036,53181
43035,53188
43030,53162
43035,53157
43026,53157
43020,53151
43040,53155
43034,53140
43042,53153
43021,53130
43037,53147
43032,53135
43023,53149
43031,53141
43024,53125
43014,53121
43026,53112
43015,53116
43016,53099
43014,53092
43018,53105
43020,53104
43010,53099
43027,53119
43023,53105
43017,53111
43040,53107
43020,53116
43044,53127
43041,53122
43034,53120
43032,53113
43037,53112
43036,53120
43027,53116
43016,53105
43031,53116
43035,53101
43011,53099
43036,53097
43034,53097
43040,53100
43042,53089
43035,53112
43026,53106
43041,53109
43048,53132
43038,53133
43042,53141
43044,53130
43052,53140
43057,53158
43067,53165
43069,53154
43078,53174
43054,53167
43061,53170
43063,53180
43079,53181
43051,53190
43055,53213
43085,53193
43082,53209
43080,53221
43084,53224
43080,53228
43104,53226
43091,53240
43088,53243
43084,53244
43107,53263
43093,53263
43093,53272
43096,53268
43115,53270
43111,53284
43106,53284
43103,53327
43113,53293
43111,53306
43117,53307
43119,53320
43113,53310
43117,53325
43126,53325
43128,53343
43118,53337
43124,53331
43130,53343
43121,53352
43126,53379
43131,53363
43124,53383
43134,53386
43143,53394
43127,53389
43148,53393
43147,53412
43146,53415
43142,53413
43154,53423
43148,53434
43174,53451
43164,53451
43173,53456
43162,53453
43168,53456
43160,53457
43155,53444
43152,53425
43141,53376
43127,53352
43109,53321
43084,53282
43089,53241
43086,53209
43073,53182
43063,53179
43056,53157
43055,53155
43071,53136
43050,53155
43061,53129
43070,53122
43060,53134
43069,53117
43063,53128
43089,53138
43062,53119
43058,53130
43060,53127
43067,53122
43058,53117
43058,53114
43058,53110
43053,53100
43055,53107
43070,53106
43048,53117
43052,53097
43059,53102
43044,53100
43054,53108
43059,53071
43046,53097
43074,53100
43058,53106
43072,53101
43063,53090
43053,53103
43042,53090
43055,53090
43036,53089
43070,53082
43053,53076
43047,53073
43055,53079
43065,53090
43066,53107
43058,53121
43060,53120
43074,53081
43080,53113
43080,53078
43053,53113
43067,53118
43080,53120
43072,53121
43087,53147
43092,53133
43083,53154
43098,53162
43072,53167
43104,53166
43069,53165
43055,53161
43046,53097
43081,53177
43093,53196
43087,53190
43102,53191
43093,53213
43107,53220
43111,53205
43106,53204
43094,53216
43107,53225
43116,53221
43115,53239
43107,53238
43109,53251
43120,53258
43119,53264
43131,53266
43129,53262
43135,53280
43148,53283
43129,53296
43133,53285
43144,53311
43131,53310
43144,53314
43141,53307
43149,53328
43147,53319
43142,53341
43157,53316
43136,53333
43153,53345
43162,53355
43153,53335
43175,53353
43148,53376
43154,53367
43162,53365
43150,53358
43138,53308
43122,53289
43116,53247
43110,53195
43082,53167
43083,53150
43083,53118
43063,53079
43054,53044
43060,53037
43057,53012
43050,53030
43050,53013
43050,52987
43050,52995
43046,52992
43040,53002
43037,52990
43045,52990
43042,52982
43050,52979
43045,52972
43040,52952
43028,52953
43033,52938
43023,52930
43027,52941
43037,52926
43029,52919
43023,52921
43032,52921
43034,52935
43033,52936
43040,52936
43041,52934
43048,52962
43045,52972
43049,52943
43067,52956
43055,52956
43056,52964
43059,52962
43046,52975
43058,52959
43065,52954
43061,52951
43060,52948
43058,52961
43061,52971
43058,52957
43075,52963
43063,52971
43077,52965
43058,52985
43073,52982
43088,52987
43085,53002
43085,53005
43085,53001
43086,53012
43090,53030
43092,53030
43104,53017
43077,53039
43102,53050
43105,53071
43112,53050
43107,53076
43112,53094
43121,53074
43115,53069
43116,53084
43112,53101
43135,53095
43123,53113
43124,53124
43113,53127
43127,53124
43147,53156
43135,53138
43127,53143
43152,53166
43144,53159
43145,53163
43150,53180
43165,53175
43153,53176
43157,53187
43177,53206
43169,53211
43155,53212
43176,53228
43178,53240
43183,53240
43159,53234
43175,53244
43184,53257
43194,53266
43184,53277
43200,53286
43194,53290
43212,53301
43195,53317
43199,53312
43212,53309
43197,53325
43214,53327
43199,53328
43223,53346
43218,53348
43218,53354
43208,53383
43225,53369
43224,53375
43241,53385
43242,53392
43226,53408
43235,53399
43233,53404
43229,53405
43218,53382
43206,53336
43192,53304
43161,53272
43159,53232
43145,53183
43151,53161
43137,53130
43137,53100
43136,53086
43121,53062
43124,53058
43125,53046
43116,53057
43109,53053
43117,53056
43122,53051
43124,53040
43129,53064
43137,53055
43121,53054
43128,53045
43133,53048
43129,53046
43116,53042
43128,53047
43110,53021
43115,53024
43116,53028
43119,53043
43122,53032
43115,53042
43118,53031
43123,53031
43127,53038
43125,53042
43129,53050
43118,53042
43122,53036
43125,53026
43121,53034
43133,53027
43111,53034
43126,53017
43119,53021
43126,53020
43123,53016
43112,53012
43121,53018
43125,53015
43131,53027
43127,53025
43124,53036
43125,53048
43126,53045
43145,53042
43144,53052
43145,53067
43144,53069
43157,53092
43147,53095
43160,53108
43155,53126
43154,53105
43144,53103
43167,53113
43161,53118
43166,53120
43163,53118
43158,53125
43177,53157
43164,53146
43175,53152
43188,53140
43177,53174
43174,53199
43184,53168
43198,53197
43189,53189
43186,53188
43200,53218
43197,53231
43183,53212
43200,53221
43211,53207
43209,53236
43210,53261
43205,53263
43207,53270
43209,53281
43217,53288
43212,53289
43241,53288
43246,53299
43249,53318
43237,53321
43224,53343
43188,53324
43217,53340
43242,53354
43255,53368
43250,53373
43252,53375
43261,53390
43254,53395
43254,53412
43255,53405
43268,53417
43267,53404
43264,53388
43235,53362
43222,53326
43235,53306
43196,53277
43210,53228
43193,53221
43181,53205
43178,53183
43185,53170
43188,53160
43173,53165
43179,53182
43175,53170
43183,53180
43193,53190
43197,53189
43190,53183
43186,53201
43180,53203
43181,53193
43190,53188
43188,53175
43184,53193
43168,53165
43167,53193
43188,53169
43173,53168
43162,53162
43190,53177
43178,53180
43176,53166
43178,53205
43192,53191
43191,53189
43185,53201
43181,53213
43188,53213
43177,53223
43187,53234
43184,53224
43185,53217
43181,53218
43187,53223
43183,53211
43172,53228
43174,53217
43195,53229
43175,53218
43192,53232
43180,53244
43181,53239
43191,53260
43201,53251
43200,53280
43204,53272
43200,53284
43183,53291
43203,53289
43215,53295
43208,53311
43226,53325
43217,53324
43226,53339
43227,53325
43225,53349
43233,53367
43222,53358
43226,53372
43236,53374
43231,53374
43239,53397
43246,53405
43236,53404
43240,53421
43248,53418
43256,53430
43243,53435
43245,53465
43265,53451
43280,53466
43258,53449
43260,53466
43266,53481
43271,53491
43276,53486
43272,53498
43292,53520
43274,53510
43281,53538
43289,53540
43283,53539
43287,53551
43280,53548
43281,53562
43300,53568
43294,53579
43298,53594
43316,53592
43297,53600
43336,53614
43306,53629
43323,53624
43313,53622
43311,53641
43322,53651
43322,53657
43326,53656
43323,53678
43329,53695
43349,53696
43359,53698
43332,53714
43337,53733
43353,53729
43368,53744
43351,53744
43363,53754
43354,53759
43363,53773
43367,53776
43370,53788
43366,53785
43365,53799
43355,53781
43349,53775
43336,53734
43337,53703
43343,53689
43306,53663
43322,53664
43309,53637
43321,53624
43310,53639
43307,53635
43305,53629
43311,53642
43323,53639
43319,53673
43321,53669
43321,53652
43328,53678
43348,53697
43335,53699
43343,53711
43338,53703
43333,53726
43332,53705
43333,53713
43347,53703
43336,53704
43328,53704
43339,53711
43344,53713
43323,53727
43343,53730
43331,53715
43357,53742
43342,53736
43338,53763
43343,53735
43362,53765
43339,53755
43359,53765
43338,53756
43339,53755
43356,53754
43340,53755
43347,53748
43347,53748
43332,53760
43350,53750
43349,53762
43350,53772
43361,53785
43346,53794
43356,53791
43351,53798
43360,53804
43356,53804
43348,53790
43370,53815
43362,53824
43372,53830
43375,53830
43360,53832
43382,53830
43355,53843
43369,53862
43377,53858
43378,53857
43389,53863
43386,53866
43386,53856
43375,53865
43383,53881
43387,53875
43374,53879
43392,53903
43393,53905
43393,53918
43389,53900
43387,53909
43394,53920
43386,53937
43407,53936
43389,53927
43397,53941
43400,53937
43394,53946
43393,53975
43386,53944
43398,53973
43404,53943
43406,53987
43414,53968
43400,53991
43411,53976
43406,53990
43403,53979
43407,53963
43387,53941
43391,53905
43401,53922
43375,53883
43359,53865
43371,53845
43355,53834
43345,53850
43357,53853
43348,53822
43355,53833
43365,53854
43358,53839
43357,53843
43364,53849
43363,53869
43359,53865
43347,53862
43358,53854
43386,53860
43372,53869
43357,53849
43337,53867
43321,53851
43324,53851
43334,53843
43350,53852
43358,53848
43356,53855
43353,53865
43355,53869
43360,53873
43360,53863
43378,53880
43353,53876
43363,53871
43355,53885
43356,53888
43355,53892
43375,53880
43362,53869
43375,53870
43372,53885
43343,53882
43364,53868
43369,53877
43370,53888
43369,53881
43356,53908
43364,53893
43367,53870
43368,53907
43380,53901
43380,53911
43371,53906
43370,53900
43389,53913
43370,53917
43358,53918
43369,53935
43381,53925
43381,53936
43358,53938
43382,53950
43362,53950
43394,53943
43391,53947
43368,53959
43374,53966
43379,53963
43372,53965
43391,53971
43370,53964
43376,53965
43370,53989
43396,53974
43384,53986
43381,53969
43390,53984
43379,53981
43396,54019
43387,53990
43388,53985
43383,54008
43389,54013
43392,54022
43399,54017
43384,54003
43394,54020
43396,54024
43402,54014
43397,54037
43398,54044
43401,54042
43416,54041
43387,54063
43411,54066
43402,54070
43404,54065
43420,54071
43420,54066
43415,54086
43416,54091
43412,54084
43421,54089
43419,54095
43424,54107
43423,54111
43427,54121
43420,54128
43431,54117
43416,54123
43426,54119
43423,54125
43420,54131
43431,54116
43432,54136
43439,54148
43440,54152
43424,54152
43442,54153
43431,54149
43446,54173
43443,54174
43448,54182
43430,54185
43445,54174
43424,54153
43429,54129
43430,54111
43398,54068
43413,54041
43372,54031
43378,53993
43359,53961
43374,53966
43368,53960
43364,53951
43362,53935
43366,53954
43357,53941
43383,53942
43366,53952
43372,53961
43362,53951
43370,53966
43363,53969
43363,53943
43368,53941
43373,53941
43374,53934
43353,53933
43361,53930
43370,53919
43364,53927
43353,53923
43359,53924
43360,53916
43351,53921
43354,53937
43336,53939
43362,53928
43367,53927
43356,53929
43362,53934
43358,53919
43355,53933
43350,53939
43355,53926
43359,53909
43357,53939
43355,53923
43342,53920
43359,53911
43345,53936
43354,53920
43355,53921
43352,53937
43357,53913
43357,53941
43343,53943
43369,53934
43355,53954
43376,53947
43379,53933
43372,53946
43363,53941
43369,53952
43368,53971
43354,53950
43370,53965
43376,53967
43376,53964
43368,53976
43366,53982
43375,53978
43366,53979
43379,53972
43363,53969
43360,53985
43375,53997
43372,53983
43387,53990
43393,53991
43386,54006
43397,53988
43389,53990
43377,54012
43391,53998
43389,54013
43385,53986
43397,54005
43395,54021
43405,54012
43389,54016
43385,54018
43401,54012
43402,54029
43392,54046
43369,54033
43389,54034
43388,54061
43393,54045
43398,54029
43399,54060
43404,54050
43402,54053
43401,54051
43389,54052
43400,54061
43401,54060
43388,54072
43396,54073
43417,54085
43414,54091
43417,54084
43401,54090
43424,54106
43407,54098
43408,54110
43412,54111
43411,54112
43408,54104
43419,54098
43406,54077
43394,54072
43388,54054
43372,54026
43361,53982
43355,53950
43363,53931
43336,53897
43343,53884
43331,53857
43328,53865
43314,53857
43345,53854
43320,53847
43341,53855
43324,53846
43341,53856
43327,53858
43401,54060
43353,53863
43336,53870
43349,53878
43333,53850
43323,53787
43315,53804
43320,53806
43317,53824
43334,53810
43313,53817
43317,53814
43318,53802
43318,53814
43313,53816
43333,53816
43315,53816
43297,53803
43290,53806
43288,53804
43300,53780
43293,53802
43306,53800
43299,53781
43294,53781
43297,53776
43295,53787
43288,53775
43296,53760
43282,53794
43294,53758
43292,53767
43298,53769
43296,53766
43301,53772
43299,53784
43295,53785
43309,53772
43316,53778
43296,53796
43291,53781
43289,53791
43308,53790
43306,53786
43311,53787
43311,53794
43305,53790
43302,53787
43306,53799
43303,53803
43308,53800
43318,53791
43295,53802
43297,53810
43311,53830
43323,53804
43311,53794
43280,53800
43316,53812
43309,53810
43308,53815
43309,53823
43310,53823
43311,53824
43304,53816
43316,53833
43307,53826
43324,53830
43328,53837
43320,53846
43301,53832
43316,53828
43319,53836
43310,53840
43322,53859
43333,53857
43320,53869
43320,53851
43326,53860
43332,53861
43330,53868
43333,53877
43330,53874
43340,53868
43335,53887
43322,53873
43335,53896
43337,53900
43326,53909
43341,53888
43329,53906
43329,53905
43335,53889
43336,53914
43321,53873
43317,53859
43304,53829
43282,53764
43272,53753
43268,53722
43271,53691
43251,53661
43239,53653
43240,53628
43237,53614
43241,53623
43237,53615
43225,53609
43218,53604
43229,53599
43228,53605
43231,53608
43234,53600
43216,53602
43224,53590
43223,53573
43227,53571
43227,53567
43220,53556
43230,53538
43198,53527
43209,53520
43214,53527
43211,53533
43208,53513
43218,53527
43213,53524
43200,53520
43221,53520
43208,53526
43211,53526
43210,53511
43206,53512
43203,53506
43220,53509
43192,53508
43186,53512
43203,53499
43194,53497
43198,53497
43179,53487
43195,53480
43190,53485
43202,53498
43202,53478
43194,53480
43192,53491
43193,53497
43205,53492
43208,53502
43217,53506
43193,53502
43210,53522
43197,53515
43207,53502
43194,53527
43205,53509
43204,53525
43210,53531
43206,53536
43214,53540
43205,53551
43213,53542
43207,53536
43225,53555
43216,53545
43226,53554
43233,53554
43216,53558
43224,53542
43222,53549
43213,53577
43221,53569
43218,53556
43221,53555
43223,53574
43222,53578
43223,53580
43219,53584
43243,53591
43237,53595
43234,53589
43236,53596
43244,53593
43240,53619
43230,53615
43233,53614
43255,53622
43242,53612
43238,53637
43243,53623
43248,53646
43253,53631
43251,53653
43246,53647
43253,53625
43253,53654
43253,53655
43261,53670
43254,53654
43258,53687
43263,53693
43254,53682
43270,53708
43244,53695
43263,53695
43272,53690
43276,53713
43264,53709
43272,53710
43281,53717
43275,53734
43275,53739
43282,53718
43281,53742
43277,53718
43247,53696
43257,53668
43231,53631
43222,53583
43204,53559
43210,53511
43197,53490
43203,53479
43183,53432
43177,53423
43185,53430
43175,53421
43165,53421
43167,53417
43171,53408
43165,53420
43168,53420
43179,53423
43171,53413
43168,53419
43174,53431
43172,53401
43169,53411
43167,53398
43167,53413
43161,53393
43155,53381
43164,53381
43163,53377
43153,53375
43166,53374
43144,53377
43152,53377
43162,53371
43157,53383
43131,53381
43152,53368
43154,53379
43152,53367
43133,53356
43133,53352
43140,53354
43134,53352
43139,53372
43131,53323
43142,53298
43128,53309
43140,53334
43115,53335
43143,53342
43133,53337
43146,53345
43136,53342
43129,53353
43157,53360
43152,53345
43166,53358
43124,53359
43135,53374
43164,53381
43130,53384
43144,53379
43156,53388
43148,53398
43156,53372
43159,53383
43164,53396
43156,53394
43153,53395
43148,53398
43159,53395
43159,53387
43156,53391
43155,53419
43163,53407
43163,53418
43152,53422
43168,53408
43174,53432
43153,53424
43165,53439
43175,53431
43171,53440
43161,53440
43161,53445
43177,53449
43187,53459
43167,53464
43178,53461
43187,53481
43198,53463
43180,53480
43177,53481
43189,53486
43192,53488
43193,53474
43192,53489
43180,53499
43176,53503
43192,53502
43196,53533
43202,53535
43190,53542
43197,53542
43194,53558
43209,53565
43202,53539
43210,53573
43203,53564
43218,53562
43218,53586
43221,53578
43220,53608
43224,53590
43218,53599
43225,53603
43206,53609
43222,53572
43189,53559
43178,53509
43162,53455
43149,53431
43141,53370
43135,53351
43121,53319
43107,53288
43108,53276
43104,53264
43085,53257
43099,53265
43083,53245
43097,53239
43103,53249
43095,53238
43100,53253
43092,53247
43094,53241
43083,53245
43104,53223
43098,53225
43090,53222
43083,53198
43079,53206
43076,53195
43065,53194
43073,53169
43086,53182
43087,53174
43068,53168
43060,53191
43070,53177
43089,53193
43085,53174
43073,53187
43089,53191
43083,53198
43079,53193
43078,53194
43081,53186
43093,53182
43072,53183
43085,53183
43065,53170
43081,53160
43091,53175
43070,53171
43077,53174
43080,53167
43088,53170
43084,53173
43086,53173
43090,53168
43077,53191
43085,53181
43092,53192
43075,53194
43088,53213
43095,53200
43086,53207
43105,53225
43101,53230
43110,53212
43110,53218
43108,53238
43097,53235
43121,53239
43129,53261
43119,53252
43110,53253
43123,53264
43123,53278
43139,53281
43140,53285
43141,53275
43131,53278
43139,53304
43120,53294
43129,53309
43131,53315
43133,53334
43148,53321
43140,53316
43151,53330
43153,53333
43152,53363
43161,53345
43151,53362
43145,53358
43163,53371
43167,53379
43167,53374
43172,53396
43176,53392
43172,53394
43172,53409
43165,53413
43155,53398
43189,53400
43176,53434
43154,53428
43181,53419
43165,53418
43184,53435
43187,53439
43168,53451
43191,53435
43198,53449
43169,53471
43188,53475
43189,53485
43186,53471
43212,53489
43192,53494
43212,53497
43200,53503
43205,53538
43214,53516
43199,53539
43217,53544
43201,53516
43193,53498
43195,53463
43173,53423
43159,53379
43142,53337
43125,53305
43112,53276
43115,53238
43102,53215
43091,53196
43081,53174
43089,53159
43096,53171
43089,53170
43090,53152
43077,53162
43092,53154
43082,53162
43094,53170
43086,53152
43083,53159
43084,53154
43082,53148
43078,53150
43085,53143
43067,53138
43075,53128
43078,53133
43072,53135
43079,53125
43078,53127
43078,53130
43081,53126
43077,53143
43065,53140
43074,53138
43073,53142
43070,53139
43076,53124
43070,53125
43072,53113
43072,53102
43082,53111
43089,53114
43064,53086
43071,53113
43072,53093
43078,53106
43066,53099
43076,53104
43084,53121
43059,53125
43088,53111
43085,53117
43105,53119
43086,53124
43086,53124
43079,53127
43086,53153
43092,53185
43092,53171
43103,53152
43092,53132
43102,53164
43109,53171
43098,53198
43110,53177
43102,53196
43121,53187
43126,53207
43113,53211
43144,53210
43145,53221
43114,53227
43116,53238
43103,53247
43064,53086
43131,53254
43142,53247
43147,53277
43133,53262
43141,53271
43135,53267
43141,53283
43149,53282
43154,53298
43151,53295
43158,53299
43174,53307
43163,53308
43153,53311
43167,53317
43167,53334
43167,53324
43156,53346
43184,53371
43179,53368
43191,53370
43175,53373
43197,53368
43182,53390
43189,53390
43178,53395
43190,53399
43197,53400
43196,53420
43206,53407
43205,53438
43205,53431
43203,53440
43200,53415
43177,53418
43183,53381
43156,53332
43162,53295
43135,53255
43139,53222
43111,53155
43110,53149
43102,53117
43083,53101
43101,53081
43085,53073
43089,53065
43090,53076
43090,53069
43085,53062
43089,53061
43083,53064
43097,53057
43075,53063
43086,53057
43084,53050
43077,53054
43087,53031
43064,53022
43072,53021
43078,53010
43071,52998
43065,52992
43069,53002
43076,53003
43062,52989
43073,52994
43081,52996
43071,53001
43066,53009
43071,53029
43092,53022
43078,53025
43074,53037
43080,53031
43088,53016
43092,53041
43082,53010
43098,53021
43064,53021
43093,53011
43081,53004
43082,53013
43083,53023
43079,53017
43092,53024
43113,53012
43093,53039
43100,53031
43106,53045
43096,53042
43100,53056
43097,53064
43104,53057
43124,53066
43109,53083
43116,53075
43130,53095
43115,53115
43123,53114
43128,53111
43132,53111
43133,53130
43138,53132
43137,53141
43130,53144
43153,53161
43152,53153
43135,53170
43147,53165
43135,53167
43155,53173
43148,53177
43159,53186
43171,53193
43155,53210
43157,53218
43164,53205
43163,53218
43180,53214
43169,53231
43173,53234
43180,53241
43179,53248
43182,53257
43205,53265
43174,53274
43188,53279
43194,53285
43200,53299
43208,53310
43229,53303
43222,53321
43217,53338
43222,53326
43212,53326
43230,53332
43219,53352
43238,53364
43222,53355
43234,53360
43242,53387
43216,53383
43231,53388
43238,53417
43250,53425
43256,53422
43248,53451
43250,53428
43262,53446
43264,53455
43264,53458
43269,53457
43256,53455
43247,53414
43231,53386
43207,53340
43203,53299
43182,53247
43167,53201
43155,53188
43154,53156
43130,53121
43132,53107
43148,53096
43134,53092
43132,53086
43140,53079
43139,53087
43147,53085
43136,53088
43139,53092
43149,53088
43138,53098
43140,53087
43138,53087
43133,53079
43136,53092
43143,53064
43142,53076
43133,53058
43129,53063
43115,53043
43115,53044
43120,53046
43137,53068
43136,53069
43118,53058
43138,53060
43130,53070
43135,53069
43146,53057
43134,53069
43131,53051
43123,53047
43119,53046
43137,53042
43131,53050
43126,53041
43127,53035
43121,53030
43129,53023
43120,53019
43122,53047
43121,53032
43115,53032
43125,53034
43129,53053
43140,53054
43136,53065
43135,53061
43145,53070
43136,53069
43146,53070
43152,53063
43146,53078
43136,53099
43139,53107
43152,53112
43158,53114
43159,53135
43161,53122
43168,53129
43171,53120
43165,53136
43175,53143
43177,53152
43163,53155
43178,53149
43189,53174
43177,53167
43187,53170
43185,53160
43198,53185
43197,53191
43177,53174
43193,53200
43115,53032
43192,53220
43192,53243
43203,53243
43193,53228
43186,53199
43176,53159
43182,53129
43149,53109
43134,53072
43138,53022
43116,52993
43103,52971
43110,52937
43090,52904
43114,52887
43099,52878
43053,52870
43066,52872
43079,52866
43078,52867
43067,52877
43101,52844
43088,52868
43071,52881
43089,52841
43070,52849
43091,52837
43086,52823
43066,52830
43059,52814
43085,52816
43058,52810
43080,52810
43054,52782
43052,52790
43067,52792
43079,52804
43062,52791
43081,52799
43073,52827
43066,52830
43088,52832
43076,52817
43069,52817
43082,52824
43070,52816
43073,52820
43081,52819
43093,52828
43089,52820
43086,52827
43094,52828
43076,52821
43088,52820
43101,52821
43076,52848
43099,52831
43096,52836
43104,52865
43099,52857
43103,52871
43112,52880
43106,52880
43127,52881
43125,52892
43128,52897
43128,52905
43123,52926
43129,52936
43125,52925
43139,52932
43143,52949
43124,52956
43145,52958
43154,52968
43149,52974
43138,52990
43152,52984
43161,52987
43144,53011
43153,53003
43152,53011
43171,53026
43165,53025
43176,53031
43178,53052
43181,53055
43186,53065
43187,53070
43184,53079
43194,53093
43203,53077
43184,53091
43217,53115
43198,53113
43209,53117
43216,53127
43214,53136
43214,53157
43213,53147
43223,53166
43235,53163
43220,53163
43219,53182
43237,53190
43236,53205
43230,53206
43231,53212
43240,53213
43244,53225
43246,53239
43249,53251
43252,53263
43255,53264
43270,53282
43261,53263
43276,53307
43274,53300
43280,53296
43287,53319
43310,53329
43288,53338
43291,53333
43291,53344
43296,53362
43303,53365
43303,53391
43306,53388
43302,53391
43302,53394
43320,53411
43316,53428
43317,53436
43328,53435
43320,53429
43319,53403
43279,53353
43269,53318
43255,53268
43246,53216
43225,53188
43241,53144
43205,53118
43219,53123
43207,53106
43204,53089
43215,53068
43197,53079
43206,53084
43213,53077
43213,53092
43214,53107
43221,53081
43215,53095
43225,53107
43220,53095
43224,53108
43225,53096
43217,53085
43218,53084
43215,53073
43222,53082
43210,53059
43202,53076
43202,53059
43220,53065
43220,53059
43210,53065
43207,53067
43220,53089
43213,53080
43224,53088
43215,53081
43218,53092
43221,53088
43209,53082
43224,53079
43223,53089
43211,53091
43213,53070
43216,53068
43209,53066
43215,53072
43202,53068
43218,53088
43220,53074
43226,53092
43214,53083
43213,53085
43219,53084
43231,53089
43220,53100
43230,53102
43224,53120
43221,53123
43224,53128
43253,53142
43248,53121
43242,53144
43243,53141
43242,53146
43242,53164
43239,53160
43245,53174
43253,53175
43250,53187
43252,53179
43267,53194
43265,53186
43270,53199
43263,53208
43271,53227
43268,53229
43268,53231
43271,53239
43276,53232
43283,53227
43274,53248
43279,53258
43296,53261
43284,53261
43283,53274
43276,53275
43291,53282
43288,53288
43287,53267
43252,53256
43267,53220
43257,53180
43245,53159
43222,53121
43230,53097
43211,53083
43218,53073
43219,53065
43195,53054
43209,53037
43201,53026
43200,53032
43204,53070
43221,53046
43204,53032
43204,53050
43215,53046
43200,53048
43202,53032
43214,53043
43217,53028
43201,53037
43202,53029
43201,53008
43187,53011
43192,53013
43206,53013
43190,53006
43196,53011
43211,53022
43197,53050
43203,53065
43218,53013
43198,53000
43206,53007
43201,53035
43218,53053
43212,53046
43212,53031
43203,53018
43204,53029
43220,53033
43216,53018
43221,53027
43220,53038
43192,53027
43203,53042
43192,53043
43212,53056
43217,53048
43218,53070
43215,53066
43211,53061
43214,53072
43221,53057
43217,53074
43238,53079
43240,53103
43221,53097
43243,53111
43246,53120
43234,53123
43232,53130
43245,53112
43242,53133
43252,53146
43244,53145
43245,53151
43252,53165
43270,53162
43258,53163
43254,53180
43271,53192
43259,53201
43259,53184
43265,53197
43276,53201
43255,53215
43290,53222
43268,53232
43276,53233
43276,53240
43280,53252
43290,53249
43299,53262
43290,53255
43293,53283
43295,53275
43291,53285
43306,53299
43302,53294
43304,53311
43307,53317
43317,53304
43311,53315
43321,53337
43312,53343
43315,53342
43312,53359
43321,53368
43323,53365
43319,53381
43322,53389
43325,53387
43344,53393
43334,53424
43338,53423
43325,53425
43360,53425
43353,53432
43359,53447
43359,53453
43358,53445
43361,53470
43375,53486
43365,53500
43379,53497
43364,53502
43376,53505
43382,53519
43390,53516
43383,53546
43386,53519
43386,53543
43397,53551
43405,53568
43407,53577
43405,53578
43410,53575
43387,53551
43385,53529
43377,53485
43350,53444
43345,53419
43327,53391
43325,53366
43319,53345
43302,53342
43308,53323
43310,53320
43313,53317
43315,53313
43317,53302
43317,53316
43313,53321
43318,53319
43293,53321
43313,53319
43310,53310
43306,53311
43328,53305
43314,53308
43299,53290
43301,53303
43298,53284
43292,53285
43304,53261
43302,53279
43301,53267
43294,53268
43310,53262
43302,53276
43317,53263
43313,53281
43308,53265
43301,53282
43313,53294
43307,53273
43300,53284
43313,53286
43309,53272
43301,53270
43304,53259
43297,53263
43312,53261
43288,53258
43306,53268
43297,53261
43298,53273
43302,53271
43315,53270
43302,53264
43298,53273
43312,53276
43300,53281
43314,53298
43305,53281
43309,53296
43319,53302
43320,53307
43307,53302
43315,53307
43314,53302
43339,53317
43314,53327
43329,53322
43313,53317
43320,53334
43317,53346
43334,53343
43341,53340
43333,53341
43341,53344
43330,53353
43343,53358
43342,53358
43342,53376
43338,53375
43332,53385
43344,53388
43331,53377
43353,53401
43337,53391
43359,53403
43367,53409
43352,53410
43340,53418
43359,53440
43376,53419
43356,53424
43368,53445
43364,53437
43364,53448
43355,53458
43380,53465
43375,53456
43395,53485
43375,53477
43362,53479
43374,53480
43385,53508
43383,53493
43377,53503
43388,53511
43372,53532
43396,53537
43380,53518
43394,53531
43389,53547
43396,53544
43405,53547
43399,53563
43402,53553
43407,53562
43394,53533
43387,53514
43357,53469
43353,53449
43346,53410
43337,53385
43320,53357
43317,53335
43318,53310
43310,53319
43308,53319
43315,53303
43329,53305
43310,53306
43308,53304
43314,53304
43314,53298
43306,53309
43304,53296
43302,53289
43313,53302
43308,53270
43295,53280
43302,53289
43304,53267
43297,53255
43309,53257
43307,53235
43279,53244
43290,53268
43293,53243
43298,53260
43294,53245
43287,53255
43298,53262
43295,53256
43300,53267
43281,53262
43295,53254
43277,53256
43292,53240
43286,53250
43284,53266
43292,53263
43278,53226
43270,53200
43286,53206
43294,53245
43294,53231
43293,53250
43281,53250
43300,53263
43298,53266
43293,53274
43314,53283
43303,53269
43316,53278
43276,53275
43261,53292
43307,53235
43287,53294
43286,53294
43284,53313
43309,53313
43289,53311
43294,53315
43314,53316
43315,53323
43297,53318
43305,53343
43311,53329
43303,53331
43321,53336
43306,53351
43330,53358
43322,53358
43321,53358
43318,53348
43326,53363
43316,53365
43334,53385
43327,53391
43316,53396
43335,53405
43343,53407
43326,53419
43332,53417
43351,53408
43333,53408
43350,53429
43335,53437
43350,53439
43343,53454
43368,53477
43369,53473
43368,53488
43384,53505
43403,53530
43424,53559
43422,53565
43419,53599
43450,53607
43458,53618
43469,53619
43479,53657
43494,53694
43495,53691
43524,53714
43535,53738
43536,53787
43555,53790
43577,53832
43592,53851
43613,53891
43634,53925
43633,53938
43645,53986
43667,54006
43678,54025
43679,54047
43679,54025
43679,54063
43690,54071
43687,54079
43699,54086
43690,54073
43670,54082
43668,54044
43652,53999
43648,53968
43623,53936
43605,53898
43594,53859
43591,53832
43572,53789
43563,53776
43555,53756
43561,53768
43549,53756
43531,53754
43546,53755
43539,53747
43550,53733
43535,53742
43531,53750
43537,53722
43542,53716
43518,53728
43518,53703
43517,53700
43505,53702
43504,53668
43514,53653
43500,53650
43494,53646
43496,53641
43489,53625
43474,53631
43490,53634
43493,53636
43503,53645
43492,53629
43496,53630
43488,53634
43484,53633
43496,53610
43477,53612
43490,53615
43480,53608
43479,53606
43466,53590
43465,53590
43480,53594
43465,53577
43473,53568
43452,53553
43473,53560
43478,53562
43453,53563
43473,53550
43468,53568
43450,53578
43459,53569
43460,53567
43459,53568
43463,53584
43466,53595
43480,53590
43471,53581
43463,53580
43470,53604
43467,53608
43486,53597
43465,53599
43478,53615
43474,53606
43484,53626
43481,53617
43480,53614
43480,53636
43483,53644
43481,53635
43484,53633
43498,53635
43475,53622
43481,53630
43486,53639
43480,53652
43496,53651
43482,53673
43485,53662
43496,53682
43489,53660
43490,53675
43498,53688
43500,53692
43526,53690
43516,53706
43490,53700
43512,53700
43509,53715
43514,53707
43502,53734
43510,53715
43514,53738
43521,53722
43518,53735
43518,53738
43507,53752
43519,53768
43517,53782
43510,53762
43515,53758
43543,53786
43532,53806
43519,53801
43527,53787
43539,53803
43534,53798
43542,53824
43548,53833
43546,53819
43546,53824
43540,53839
43553,53857
43545,53839
43550,53858
43548,53848
43544,53843
43536,53803
43516,53782
43489,53765
43497,53723
43495,53697
43492,53670
43484,53673
43463,53645
43472,53650
43461,53640
43481,53634
43473,53661
43468,53654
43486,53663
43482,53672
43499,53695
43478,53691
43478,53687
43497,53678
43503,53693
43489,53690
43489,53689
43488,53698
43496,53678
43468,53686
43478,53682
43481,53674
43482,53670
43485,53675
43470,53690
43481,53696
43484,53700
43487,53710
43488,53704
43489,53687
43482,53717
43480,53719
43488,53729
43487,53718
43496,53720
43491,53714
43473,53707
43477,53702
43500,53726
43499,53710
43489,53731
43484,53717
43484,53730
43495,53735
43500,53768
43485,53777
43487,53759
43494,53744
43492,53765
43486,53757
43501,53759
43504,53778
43500,53769
43495,53778
43505,53798
43504,53799
43509,53806
43524,53800
43517,53814
43508,53828
43494,53821
43488,53834
43506,53833
43521,53832
43502,53852
43515,53860
43513,53840
43519,53837
43511,53864
43517,53863
43523,53891
43509,53869
43519,53878
43538,53882
43520,53881
43521,53890
43530,53913
43521,53900
43529,53915
43538,53924
43548,53911
43537,53925
43521,53922
43544,53949
43539,53938
43543,53953
43546,53957
43550,53962
43538,53954
43533,53976
43548,53975
43560,53984
43556,53976
43544,53983
43553,53990
43562,53991
43564,53990
43559,53999
43556,54017
43556,54023
43557,54021
43556,54043
43550,54013
43561,54040
43563,54040
43573,54049
43574,54056
43572,54055
43581,54060
43580,54073
43570,54078
43586,54086
43590,54095
43583,54093
43587,54092
43590,54093
43572,54097
43586,54104
43574,54060
43555,54058
43550,54028
43530,53998
43536,53969
43524,53961
43514,53945
43503,53905
43509,53923
43513,53929
43506,53933
43517,53932
43522,53950
43528,53953
43530,53977
43540,53956
43540,53975
43544,53974
43548,53995
43537,53999
43538,53985
43539,54001
43542,53997
43531,53982
43534,53978
43544,53971
43538,53984
43532,53990
43540,53987
43536,54001
43536,54000
43540,54000
43529,53989
43533,54025
43546,54030
43543,54029
43547,54018
43532,54021
43548,54036
43547,54025
43547,54033
43542,54030
43543,54030
43558,54038
43543,54020
43544,54027
43552,54042
43545,54041
43553,54035
43535,54042
43543,54036
43538,54063
43559,54061
43547,54077
43541,54057
43545,54079
43555,54086
43551,54094
43552,54088
43567,54095
43557,54091
43566,54107
43556,54102
43581,54121
43565,54106
43565,54111
43556,54130
43572,54136
43549,54137
43567,54137
43547,54149
43563,54155
43557,54164
43560,54157
43588,54155
43565,54166
43583,54172
43587,54165
43593,54181
43580,54183
43561,54189
43597,54188
43575,54192
43579,54194
43591,54207
43571,54188
43588,54213
43587,54222
43590,54221
43583,54207
43573,54221
43584,54230
43582,54224
43593,54218
43597,54238
43589,54243
43598,54239
43597,54231
43609,54249
43594,54256
43595,54253
43589,54273
43604,54263
43600,54287
43602,54275
43598,54286
43590,54291
43610,54282
43619,54293
43614,54303
43619,54306
43620,54313
43605,54315
43621,54314
43611,54320
43620,54326
43614,54327
43625,54327
43607,54309
43616,54299
43600,54280
43573,54252
43562,54217
43565,54197
43570,54174
43548,54168
43547,54184
43555,54151
43540,54156
43551,54171
43557,54157
43556,54175
43559,54178
43562,54187
43566,54188
43557,54221
43577,54199
43575,54213
43571,54213
43566,54215
43562,54217
43561,54195
43554,54207
43549,54216
43558,54211
43544,54210
43557,54211
43556,54207
43550,54196
43554,54206
43551,54206
43569,54208
43565,54222
43543,54227
43553,54218
43557,54230
43564,54216
43579,54215
43559,54208
43556,54216
43556,54214
43556,54215
43533,54235
43565,54197
43552,54224
43548,54232
43549,54198
43543,54223
43546,54225
43561,54230
43556,54230
43565,54239
43575,54240
43569,54250
43557,54258
43560,54234
43582,54265
43554,54258
43566,54267
43567,54254
43561,54264
43554,54206
43559,54279
43569,54306
43566,54307
43561,54262
43567,54265
43551,54286
43577,54294
43572,54306
43559,54294
43571,54300
43563,54303
43578,54313
43591,54306
43559,54301
43579,54318
43571,54311
43548,54321
43544,54331
43588,54319
43580,54337
43584,54333
43558,54337
43590,54342
43590,54332
43586,54341
43575,54354
43580,54349
43580,54342
43580,54356
43579,54356
43568,54361
43580,54363
43563,54377
43574,54371
43592,54378
43584,54381
43573,54392
43570,54377
43588,54385
43592,54395
43582,54382
43572,54410
43595,54399
43592,54395
43579,54406
43585,54401
43583,54416
43589,54422
43607,54420
43591,54422
43592,54428
43581,54413
43571,54412
43579,54381
43552,54345
43538,54305
43537,54275
43533,54260
43515,54244
43509,54238
43514,54203
43518,54189
43509,54208
43506,54208
43522,54203
43516,54192
43507,54211
43510,54213
43512,54208
43514,54213
43518,54220
43517,54204
43507,54205
43513,54209
43509,54211
43495,54209
43504,54179
43499,54181
43484,54187
43500,54188
43483,54174
43490,54166
43489,54174
43483,54179
43491,54181
43495,54174
43501,54183
43499,54182
43482,54181
43502,54180
43489,54186
43490,54185
43500,54183
43484,54180
43476,54180
43485,54179
43487,54170
43485,54166
43488,54154
43488,54167
43472,54160
43458,54164
43478,54161
43461,54156
43473,54139
43484,54181
43471,54158
43475,54176
43462,54182
43492,54177
43490,54207
43481,54187
43493,54185
43469,54190
43484,54196
43484,54186
43488,54191
43473,54204
43485,54192
43475,54192
43491,54197
43483,54202
43476,54202
43491,54203
43494,54211
43491,54205
43480,54222
43486,54207
43493,54223
43491,54219
43476,54221
43480,54231
43482,54243
43500,54230
43486,54232
43496,54242
43473,54220
43487,54230
43477,54232
43489,54234
43498,54263
43495,54249
43494,54255
43493,54275
43481,54256
43490,54249
43490,54263
43495,54259
43493,54262
43503,54264
43495,54272
43481,54262
43488,54287
43493,54273
43504,54286
43495,54278
43489,54299
43499,54299
43500,54291
43505,54290
43494,54311
43500,54299
43503,54289
43481,54270
43464,54233
43458,54217
43435,54164
43433,54140
43423,54109
43413,54085
43410,54065
43406,54060
43412,54056
43400,54034
43391,54050
43419,54038
43413,54036
43420,54068
43405,54059
43426,54062
43413,54055
43413,54057
43402,54063
43420,54061
43396,54049
43401,54052
43391,54036
43396,54032
43394,54035
43398,54024
43394,54026
43396,54024
43383,54021
43391,54022
43393,54027
43392,54024
43394,54026
43379,54018
43401,54024
43392,54027
43376,54014
43384,54029
43390,54004
43375,53998
43394,54004
43371,53999
43374,53986
43372,53999
43370,53992
43373,53979
43382,53976
43374,53984
43371,53985
43363,54002
43385,53979
43369,53989
43361,53997
43349,53990
43365,53988
43357,53998
43368,54007
43373,53994
43358,54006
43379,54002
43369,53998
43368,54010
43365,54005
43360,54012
43380,54003
43360,54016
43375,54004
43369,54017
43371,54032
43367,54007
43364,54012
43376,54025
43365,54026
43358,54024
43371,54021
43369,54028
43368,54032
43369,54031
43363,54026
43368,54035
43377,54026
43367,54029
43377,54026
43382,54037
43372,54031
43381,54022
43353,54023
43352,54002
43356,53962
43338,53942
43358,54006
43308,53872
43293,53861
43290,53840
43265,53795
43281,53749
43272,53774
43265,53741
43285,53750
43284,53754
43279,53748
43276,53749
43269,53748
43273,53760
43285,53752
43275,53727
43270,53734
43255,53734
43238,53719
43264,53700
43237,53706
43249,53689
43237,53688
43243,53675
43229,53662
43251,53672
43252,53681
43247,53685
43259,53683
43256,53687
43254,53691
43262,53676
43264,53675
43229,53683
43254,53677
43251,53686
43245,53671
43252,53666
43237,53656
43234,53663
43242,53641
43224,53633
43236,53656
43227,53636
43233,53635
43235,53643
43236,53631
43234,53623
43237,53643
43231,53636
43219,53649
43231,53637
43221,53630
43222,53643
43246,53649
43232,53640
43239,53645
43232,53652
43234,53632
43241,53652
43240,53646
43236,53657
43252,53645
43238,53657
43257,53659
43229,53665
43247,53670
43246,53647
43250,53681
43269,53676
43252,53686
43251,53676
43251,53678
43246,53690
43259,53690
43245,53681
43262,53689
43252,53696
43253,53712
43258,53709
43259,53703
43251,53714
43253,53712
43267,53725
43270,53709
43273,53723
43278,53748
43267,53738
43270,53737
43275,53737
43281,53770
43282,53762
43282,53755
43283,53765
43294,53758
43261,53767
43284,53778
43292,53766
43283,53799
43290,53792
43298,53792
43295,53797
43286,53805
43299,53809
43312,53816
43303,53830
43315,53826
43314,53827
43311,53838
43311,53840
43320,53851
43302,53848
43333,53869
43323,53877
43327,53874
43312,53882
43316,53890
43337,53895
43332,53901
43340,53905
43345,53890
43359,53916
43350,53923
43355,53938
43352,53923
43350,53919
43353,53915
43322,53892
43322,53855
43289,53803
43295,53758
43282,53738
43268,53703
43272,53682
43257,53662
43245,53636
43246,53628
43247,53617
43240,53627
43242,53618
43237,53621
43242,53609
43251,53634
43256,53616
43239,53632
43260,53642
43233,53632
43248,53628
43250,53622
43236,53623
43244,53606
43226,53606
43226,53586
43238,53583
43240,53589
43243,53591
43236,53590
43223,53577
43232,53586
43225,53583
43237,53578
43230,53568
43235,53589
43221,53584
43236,53584
43238,53591
43233,53569
43229,53564
43245,53579
43238,53553
43219,53572
43231,53553
43212,53551
43231,53561
43226,53551
43226,53551
43226,53538
43219,53538
43222,53546
43217,53558
43223,53572
43231,53578
43226,53554
43235,53568
43223,53563
43225,53574
43216,53563
43221,53586
43236,53570
43221,53581
43224,53598
43235,53580
43236,53588
43232,53595
43240,53602
43229,53603
43251,53597
43246,53614
43233,53614
43238,53599
43239,53609
43234,53618
43231,53637
43248,53624
43246,53627
43258,53633
43250,53648
43253,53633
43255,53651
43255,53646
43259,53650
43248,53659
43249,53657
43268,53657
43258,53659
43275,53673
43264,53674
43273,53677
43254,53683
43284,53693
43271,53690
43261,53695
43272,53693
43275,53704
43276,53694
43278,53704
43273,53688
43251,53675
43260,53642
43229,53598
43233,53571
43219,53547
43216,53504
43213,53488
43199,53469
43187,53451
43178,53431
43172,53442
43176,53431
43177,53434
43186,53451
43188,53435
43185,53449
43194,53432
43185,53420
43176,53422
43172,53422
43194,53425
43177,53409
43174,53404
43185,53407
43186,53389
43156,53376
43174,53381
43177,53379
43178,53377
43174,53372
43166,53386
43174,53388
43167,53400
43181,53407
43178,53362
43180,53368
43162,53387
43183,53390
43183,53375
43163,53376
43173,53384
43164,53366
43177,53389
43173,53370
43195,53375
43185,53378
43174,53359
43165,53350
43135,53371
43148,53380
43168,53367
43160,53381
43169,53375
43171,53383
43190,53386
43181,53390
43176,53398
43182,53388
43186,53396
43175,53400
43176,53416
43191,53432
43186,53423
43198,53421
43203,53434
43182,53430
43188,53440
43192,53454
43211,53442
43199,53461
43216,53467
43194,53460
43216,53458
43208,53461
43205,53481
43213,53484
43212,53491
43209,53482
43215,53493
43219,53495
43211,53513
43227,53508
43222,53494
43226,53522
43227,53533
43229,53538
43241,53534
43232,53521
43234,53539
43234,53566
43236,53562
43236,53562
43242,53565
43248,53574
43257,53573
43249,53581
43270,53586
43253,53599
43250,53597
43256,53606
43270,53622
43262,53625
43261,53628
43273,53638
43274,53627
43273,53648
43269,53644
43274,53660
43280,53655
43285,53665
43281,53667
43283,53675
43276,53685
43302,53690
43293,53687
43316,53700
43310,53682
43295,53721
43307,53716
43314,53727
43308,53718
43319,53720
43322,53725
43306,53747
43311,53745
43307,53751
43333,53761
43339,53763
43307,53758
43311,53762
43321,53720
43287,53696
43277,53663
43254,53606
43245,53571
43229,53544
43230,53498
43218,53491
43217,53482
43223,53473
43207,53477
43223,53455
43228,53472
43223,53461
43212,53472
43227,53470
43217,53469
43244,53482
43234,53475
43228,53465
43233,53474
43214,53473
43226,53458
43214,53456
43222,53449
43210,53445
43232,53436
43223,53432
43216,53427
43215,53428
43216,53439
43214,53439
43216,53437
43222,53431
43212,53429
43231,53439
43218,53454
43229,53428
43210,53445
43218,53430
43225,53434
43208,53435
43205,53433
43194,53419
43218,53408
43228,53417
43201,53400
43231,53417
43218,53410
43223,53407
43212,53412
43215,53409
43207,53418
43224,53424
43218,53421
43211,53419
43216,53423
43217,53444
43237,53432
43226,53434
43221,53430
43216,53449
43235,53452
43239,53448
43223,53456
43218,53471
43219,53457
43223,53454
43237,53462
43215,53468
43236,53474
43232,53480
43235,53458
43225,53478
43245,53494
43248,53483
43237,53490
43247,53490
43247,53483
43233,53502
43246,53508
43240,53502
43271,53516
43254,53528
43258,53520
43255,53532
43234,53546
43247,53527
43247,53535
43274,53551
43252,53529
43268,53555
43261,53563
43261,53543
43265,53567
43279,53570
43269,53557
43259,53594
43269,53579
43274,53583
43254,53583
43249,53551
43260,53522
43246,53489
43235,53464
43215,53434
43203,53414
43187,53364
43178,53351
43192,53312
43180,53305
43181,53293
43190,53290
43178,53298
43183,53270
43183,53280
43189,53295
43189,53290
43188,53281
43176,53294
43184,53292
43177,53285
43184,53280
43180,53275
43168,53267
43160,53266
43175,53244
43168,53237
43164,53240
43161,53234
43161,53241
43166,53244
43167,53236
43171,53235
43164,53247
43170,53241
43166,53258
43171,53240
43166,53246
43178,53243
43167,53256
43171,53254
43147,53250
43163,53197
43170,53229
43152,53222
43159,53225
43166,53231
43172,53215
43159,53233
43159,53233
43178,53219
43162,53242
43169,53244
43175,53230
43158,53241
43161,53249
43166,53274
43161,53287
43180,53262
43172,53231
43192,53240
43183,53271
43187,53282
43178,53297
43180,53289
43182,53301
43185,53284
43198,53304
43210,53300
43235,53313
43227,53315
43206,53338
43164,53340
43147,53250
43190,53339
43201,53333
43210,53333
43206,53358
43205,53361
43212,53363
43205,53377
43212,53371
43213,53380
43223,53381
43228,53385
43229,53398
43220,53389
43233,53414
43236,53407
43234,53416
43246,53410
43245,53411
43224,53425
43222,53430
43242,53442
43236,53447
43228,53447
43246,53461
43248,53464
43255,53472
43255,53489
43270,53470
43268,53482
43249,53484
43256,53494
43272,53508
43267,53497
43269,53504
43288,53530
43272,53543
43287,53536
43277,53527
43270,53540
43289,53546
43271,53563
43278,53569
43289,53556
43302,53570
43305,53566
43288,53588
43308,53594
43303,53606
43297,53598
43306,53621
43323,53620
43313,53614
43309,53622
43321,53641
43312,53630
43306,53623
43292,53556
43297,53553
43274,53497
43256,53469
43230,53434
43230,53389
43222,53355
43220,53327
43217,53333
43208,53307
43199,53295
43220,53294
43217,53286
43219,53307
43212,53277
43222,53299
43218,53302
43215,53316
43215,53301
43227,53295
43231,53299
43213,53276
43209,53285
43211,53287
43209,53257
43205,53259
43193,53258
43213,53260
43200,53229
43191,53245
43194,53243
43205,53248
43201,53259
43201,53252
43211,53259
43202,53253
43195,53259
43210,53255
43214,53263
43204,53263
43211,53247
43196,53244
43197,53259
43203,53232
43215,53238
43205,53241
43220,53266
43206,53246
43220,53264
43205,53243
43202,53243
43220,53242
43208,53252
43201,53258
43202,53243
43209,53269
43205,53257
43214,53265
43222,53291
43221,53273
43210,53292
43228,53297
43227,53292
43231,53312
43226,53304
43236,53302
43237,53320
43242,53326
43242,53320
43234,53336
43246,53336
43243,53343
43247,53356
43263,53350
43248,53366
43248,53366
43248,53368
43246,53391
43265,53392
43265,53382
43266,53396
43264,53395
43274,53383
43266,53396
43270,53408
43268,53408
43272,53413
43277,53418
43288,53431
43282,53429
43280,53436
43272,53449
43282,53448
43286,53475
43297,53484
43308,53480
43302,53491
43298,53486
43303,53487
43310,53494
43312,53492
43293,53494
43314,53508
43306,53498
43307,53511
43317,53534
43318,53510
43316,53526
43319,53552
43332,53545
43318,53542
43332,53541
43320,53577
43331,53572
43339,53575
43333,53578
43337,53578
43326,53569
43316,53544
43321,53522
43302,53475
43278,53441
43276,53417
43242,53363
43258,53341
43250,53333
43224,53288
43242,53298
43231,53270
43233,53288
43250,53266
43237,53270
43250,53288
43240,53286
43236,53289
43255,53284
43244,53289
43238,53283
43256,53273
43237,53298
43253,53279
43231,53278
43245,53281
43226,53262
43234,53260
43227,53259
43244,53254
43240,53260
43242,53257
43246,53280
43237,53265
43253,53272
43256,53267
43240,53272
43236,53284
43247,53266
43241,53276
43251,53266
43242,53262
43239,53269
43247,53261
43241,53260
43236,53258
43232,53264
43241,53255
43228,53260
43244,53262
43239,53237
43242,53262
43248,53277
43253,53277
43255,53291
43237,53284
43234,53292
43247,53296
43253,53288
43255,53302
43281,53310
43254,53319
43262,53323
43256,53320
43283,53346
43274,53366
43281,53384
43274,53348
43280,53329
43280,53364
43274,53345
43282,53341
43292,53385
43290,53382
43280,53384
43290,53405
43303,53394
43302,53399
43318,53391
43303,53417
43305,53408
43293,53423
43262,53431
43291,53431
43297,53439
43293,53439
43311,53447
43305,53449
43318,53461
43306,53481
43304,53476
43325,53466
43310,53477
43314,53469
43322,53486
43319,53472
43324,53501
43336,53511
43336,53523
43335,53503
43343,53509
43346,53524
43335,53537
43333,53536
43339,53527
43343,53553
43339,53549
43369,53549
43358,53562
43354,53558
43354,53584
43366,53575
43354,53576
43358,53602
43366,53597
43369,53597
43367,53621
43368,53614
43383,53630
43377,53621
43375,53617
43369,53601
43365,53579
43347,53535
43333,53503
43303,53468
43309,53438
43283,53397
43270,53364
43283,53348
43260,53323
43274,53320
43273,53308
43270,53304
43263,53290
43259,53293
43273,53290
43265,53300
43258,53291
43263,53286
43261,53297
43263,53297
43271,53284
43262,53281
43254,53269
43257,53260
43244,53263
43256,53250
43268,53238
43249,53238
43237,53232
43252,53218
43253,53238
43246,53247
43254,53247
43260,53246
43244,53260
43255,53239
43256,53251
43257,53248
43244,53248
43253,53259
43257,53251
43256,53243
43257,53259
43256,53260
43237,53239
43252,53242
43255,53232
43240,53247
43237,53238
43255,53234
43254,53255
43264,53243
43248,53253
43261,53257
43261,53256
43264,53255
43267,53282
43277,53272
43261,53283
43273,53297
43267,53305
43278,53311
43275,53303
43281,53308
43284,53326
43292,53320
43278,53338
43292,53340
43283,53346
43303,53351
43300,53346
43282,53359
43305,53365
43291,53370
43307,53378
43299,53368
43320,53373
43310,53399
43315,53403
43314,53401
43310,53400
43330,53420
43329,53429
43327,53420
43338,53425
43329,53448
43334,53444
43340,53451
43326,53463
43333,53453
43352,53466
43366,53474
43348,53471
43351,53497
43345,53488
43347,53506
43363,53499
43358,53508
43354,53511
43370,53518
43374,53518
43375,53542
43362,53551
43376,53563
43370,53563
43389,53561
43372,53560
43390,53572
43370,53568
43391,53576
43399,53573
43386,53589
43403,53600
43411,53584
43416,53605
43397,53623
43404,53624
43413,53619
43419,53634
43420,53632
43417,53648
43397,53643
43400,53615
43399,53590
43385,53569
43364,53512
43358,53491
43348,53457
43328,53428
43324,53393
43322,53392
43331,53369
43320,53343
43323,53355
43326,53346
43317,53348
43314,53359
43320,53352
43325,53360
43314,53367
43328,53359
43318,53360
43316,53358
43319,53363
43323,53350
43329,53371
43308,53348
43318,53327
43308,53335
43303,53319
43313,53327
43324,53335
43320,53332
43314,53335
43305,53336
43315,53343
43329,53330
43321,53353
43323,53341
43318,53351
43316,53361
43315,53330
43314,53344
43310,53341
43303,53342
43307,53317
43298,53337
43307,53343
43308,53326
43308,53326
43305,53334
43303,53336
43307,53334
43303,53332
43312,53323
43313,53351
43318,53340
43311,53355
43310,53346
43324,53365
43301,53359
43304,53377
43318,53365
43332,53377
43321,53380
43313,53373
43320,53388
43333,53390
43336,53399
43344,53407
43332,53413
43345,53407
43339,53417
43347,53428
43328,53425
43336,53434
43343,53432
43355,53433
43314,53425
43353,53434
43347,53447
43346,53483
43347,53480
43357,53426
43350,53436
43352,53442
43353,53470
43366,53473
43354,53475
43351,53497
43350,53486
43370,53503
43368,53498
43392,53509
43393,53502
43370,53504
43346,53500
43368,53523
43371,53530
43390,53527
43373,53533
43384,53534
43381,53531
43357,53511
43357,53475
43338,53442
43339,53406
43319,53363
43296,53337
43297,53322
43300,53311
43311,53282
43279,53279
43300,53283
43288,53277
43281,53255
43292,53253
43283,53270
43287,53270
43308,53268
43275,53271
43296,53253
43271,53256
43280,53245
43290,53249
43276,53219
43277,53220
43292,53209
43270,53211
43270,53200
43282,53192
43264,53191
43269,53186
43272,53201
43288,53204
43266,53212
43273,53216
43290,53219
43282,53202
43289,53232
43287,53233
43276,53229
43289,53227
43282,53233
43278,53223
43262,53221
43289,53222
43283,53238
43270,53222
43293,53227
43293,53228
43268,53224
43288,53204
43289,53219
43299,53240
43297,53227
43277,53254
43303,53246
43291,53257
43300,53264
43293,53255
43293,53278
43316,53269
43310,53290
43307,53297
43329,53285
43317,53287
43318,53308
43320,53309
43312,53329
43322,53316
43338,53315
43330,53339
43328,53339
43324,53332
43344,53346
43346,53355
43344,53359
43339,53372
43352,53358
43337,53376
43331,53388
43350,53389
43340,53385
43365,53402
43352,53388
43354,53407
43357,53420
43361,53420
43362,53427
43368,53424
43362,53440
43368,53448
43372,53452
43385,53453
43382,53460
43373,53470
43367,53476
43368,53485
43385,53480
43374,53476
43397,53496
43383,53492
43394,53501
43400,53508
43393,53516
43418,53515
43385,53520
43403,53547
43398,53543
43407,53539
43398,53546
43424,53543
43415,53572
43420,53578
43424,53581
43431,53591
43427,53604
43429,53618
43437,53600
43442,53615
43446,53625
43438,53632
43441,53638
43436,53647
43430,53659
43460,53667
43452,53650
43464,53678
43453,53658
43451,53654
43441,53618
43420,53580
43410,53546
43396,53502
43378,53484
43370,53437
43358,53435
43372,53401
43377,53394
43363,53382
43356,53364
43365,53368
43343,53355
43353,53362
43373,53349
43361,53368
43356,53357
43350,53364
43360,53363
43372,53363
43367,53350
43359,53362
43344,53351
43362,53319
43355,53326
43345,53322
43347,53298
43344,53305
43336,53323
43350,53292
43347,53294
43341,53310
43337,53310
43353,53305
43352,53330
43353,53312
43349,53325
43360,53326
43338,53314
43354,53328
43363,53335
43361,53315
43346,53323
43360,53309
43349,53320
43338,53306
43343,53316
43346,53299
43329,53306
43338,53306
43341,53304
43366,53307
43346,53315
43357,53323
43347,53332
43361,53339
43353,53335
43351,53345
43357,53349
43366,53356
43364,53358
43370,53361
43380,53377
43375,53395
43377,53384
43366,53395
43380,53401
43359,53398
43377,53394
43369,53412
43380,53400
43394,53423
43382,53421
43383,53405
43377,53418
43392,53419
43376,53432
43397,53419
43394,53447
43404,53471
43399,53464
43404,53462
43417,53464
43409,53469
43422,53474
43412,53485
43410,53493
43407,53488
43429,53497
43415,53489
43431,53511
43440,53501
43427,53497
43437,53530
43432,53524
43426,53529
43420,53534
43458,53545
43435,53559
43450,53552
43441,53561
43439,53570
43434,53576
43441,53574
43433,53577
43452,53588
43462,53612
43460,53629
43453,53604
43469,53578
43448,53576
43476,53606
43456,53581
43449,53579
43421,53535
43413,53504
43406,53459
43384,53441
43389,53414
43425,53385
43381,53368
43371,53368
43363,53355
43355,53319
43334,53335
43361,53325
43360,53323
43373,53346
43369,53328
43367,53334
43376,53316
43355,53311
43363,53322
43359,53293
43325,53292
43333,53272
43309,53262
43316,53255
43308,53226
43298,53207
43309,53203
43316,53211
43296,53224
43304,53217
43295,53221
43294,53231
43308,53240
43322,53219
43309,53235
43296,53234
43322,53235
43315,53223
43333,53241
43334,53223
43323,53238
43313,53233
43316,53231
43322,53246
43331,53247
43328,53236
43329,53248
43325,53236
43324,53261
43322,53262
43342,53256
43339,53282
43342,53282
43346,53280
43339,53292
43350,53290
43343,53286
43364,53296
43357,53308
43371,53291
43357,53318
43348,53329
43359,53342
43363,53325
43368,53323
43369,53332
43378,53345
43382,53357
43372,53355
43380,53369
43387,53394
43370,53371
43386,53376
43397,53377
43387,53386
43393,53410
43378,53384
43400,53412
43377,53420
43389,53428
43399,53428
43397,53425
43414,53435
43407,53440
43400,53450
43407,53440
43416,53456
43392,53453
43403,53462
43399,53460
43403,53455
43388,53464
43400,53463
43406,53474
43407,53482
43400,53480
43401,53485
43409,53486
43416,53478
43425,53497
43431,53511
43415,53509
43423,53506
43429,53519
43420,53526
43434,53526
43442,53542
43434,53562
43446,53554
43448,53560
43438,53562
43450,53574
43445,53569
43437,53582
43448,53593
43434,53583
43437,53581
43437,53530
43421,53488
43407,53467
43404,53431
43378,53411
43375,53357
43371,53339
43376,53334
43363,53314
43372,53293
43357,53288
43360,53301
43358,53295
43358,53288
43372,53282
43355,53273
43349,53297
43366,53280
43363,53266
43358,53268
43366,53290
43358,53265
43361,53261
43355,53233
43335,53240
43333,53224
43346,53242
43330,53220
43339,53219
43339,53213
43353,53237
43350,53223
43353,53224
43347,53236
43370,53233
43353,53231
43353,53239
43344,53237
43355,53246
43359,53233
43362,53237
43368,53226
43355,53247
43354,53238
43359,53240
43360,53240
43346,53239
43350,53234
43351,53240
43367,53233
43358,53257
43349,53254
43363,53251
43363,53256
43368,53263
43363,53277
43362,53269
43363,53279
43381,53291
43383,53284
43379,53286
43387,53286
43387,53300
43376,53312
43381,53317
43390,53324
43388,53325
43395,53340
43397,53342
43399,53345
43388,53353
43402,53356
43407,53360
43401,53363
43407,53387
43423,53381
43416,53379
43419,53379
43422,53399
43430,53394
43420,53406
43425,53393
43419,53408
43418,53409
43421,53412
43431,53435
43433,53437
43444,53433
43449,53439
43432,53445
43435,53449
43429,53471
43440,53475
43453,53486
43460,53473
43455,53487
43458,53504
43442,53494
43467,53508
43449,53507
43462,53525
43466,53525
43468,53520
43471,53534
43460,53548
43479,53538
43474,53563
43482,53553
43482,53562
43473,53569
43468,53573
43491,53588
43478,53589
43477,53602
43495,53603
43498,53600
43481,53628
43498,53578
43465,53563
43470,53546
43457,53502
43440,53456
43428,53441
43433,53403
43421,53372
43418,53351
43393,53338
43396,53319
43394,53317
43393,53298
43391,53315
43399,53307
43385,53303
43407,53296
43402,53307
43418,53318
43409,53315
43400,53277
43417,53246
43386,53266
43397,53284
43381,53273
43390,53274
43390,53278
43371,53280
43395,53267
43387,53265
43397,53275
43425,53253
43415,53292
43389,53271
43379,53275
43457,53502
43381,53266
43381,53263
43398,53251
43401,53276
43392,53278
43382,53256
43375,53251
43375,53279
43401,53273
43378,53246
43390,53258
43386,53266
43387,53256
43398,53258
43392,53250
43392,53260
43409,53274
43398,53266
43395,53271
43391,53274
43401,53275
43402,53280
43414,53305
43414,53306
43411,53314
43408,53324
43410,53328
43417,53323
43416,53325
43424,53346
43429,53348
43421,53346
43415,53341
43428,53356
43426,53368
43445,53365
43435,53375
43425,53377
43428,53379
43437,53386
43432,53399
43427,53397
43438,53383
43438,53418
43442,53415
43444,53411
43454,53419
43453,53421
43453,53426
43447,53427
43460,53446
43457,53436
43462,53454
43463,53453
43467,53462
43466,53460
43463,53473
43461,53471
43471,53491
43467,53475
43481,53495
43475,53502
43485,53516
43479,53499
43475,53507
43486,53511
43482,53540
43476,53547
43486,53540
43482,53527
43480,53519
43456,53479
43462,53419
43429,53395
43427,53374
43419,53313
43407,53301
43386,53274
43385,53248
43382,53215
43359,53220
43364,53187
43363,53210
43369,53187
43370,53195
43366,53190
43364,53189
43370,53175
43360,53198
43368,53182
43357,53185
43346,53184
43367,53149
43372,53166
43363,53150
43366,53145
43355,53141
43348,53128
43348,53121
43350,53133
43347,53129
43362,53120
43352,53148
43370,53145
43366,53153
43381,53142
43347,53163
43373,53152
43374,53169
43365,53158
43363,53149
43358,53150
43362,53168
43383,53148
43378,53138
43379,53158
43369,53160
43377,53147
43362,53172
43363,53158
43368,53160
43362,53158
43374,53159
43380,53161
43369,53183
43396,53168
43392,53185
43376,53186
43392,53201
43386,53211
43382,53213
43408,53219
43389,53222
43391,53233
43387,53241
43418,53250
43403,53261
43402,53267
43415,53256
43405,53268
43418,53289
43403,53290
43419,53288
43428,53286
43427,53300
43425,53302
43438,53308
43424,53305
43433,53320
43442,53341
43448,53351
43428,53339
43441,53358
43455,53356
43453,53361
43463,53374
43459,53386
43457,53382
43460,53402
43463,53383
43467,53401
43465,53397
43488,53433
43468,53449
43483,53430
43473,53457
43486,53465
43495,53447
43479,53465
43490,53456
43494,53483
43494,53483
43508,53493
43497,53492
43506,53512
43502,53529
43507,53531
43511,53533
43512,53536
43512,53531
43510,53556
43538,53539
43528,53569
43526,53577
43521,53581
43528,53596
43539,53602
43527,53610
43541,53616
43544,53623
43526,53629
43537,53587
43537,53592
43501,53551
43507,53514
43491,53470
43485,53423
43470,53393
43450,53370
43438,53328
43450,53306
43443,53300
43439,53283
43437,53290
43435,53287
43444,53270
43420,53272
43438,53272
43444,53275
43433,53255
43442,53273
43436,53270
43449,53268
43434,53260
43443,53266
43445,53242
43430,53240
43434,53230
43422,53229
43429,53233
43437,53228
43410,53224
43422,53230
43423,53233
43412,53234
43428,53232
43419,53232
43429,53227
43427,53213
43444,53241
43427,53226
43433,53245
43438,53227
43422,53215
43415,53226
43429,53245
43414,53218
43430,53224
43456,53217
43420,53215
43421,53227
43412,53210
43426,53224
43436,53255
43433,53221
43431,53215
43437,53200
43415,53255
43443,53248
43455,53259
43438,53276
43444,53268
43439,53266
43434,53279
43454,53295
43463,53288
43471,53291
43451,53301
43429,53302
43429,53335
43440,53329
43466,53311
43474,53336
43461,53341
43459,53349
43474,53339
43466,53360
43463,53357
43478,53360
43468,53380
43488,53369
43484,53382
43489,53395
43486,53400
43477,53389
43483,53382
43492,53423
43488,53411
43488,53420
43503,53420
43513,53426
43495,53449
43495,53438
43503,53447
43504,53452
43509,53449
43494,53457
43499,53479
43507,53461
43505,53476
43518,53475
43515,53495
43523,53489
43524,53488
43519,53501
43530,53504
43522,53496
43507,53463
43504,53453
43488,53419
43480,53389
43462,53346
43453,53310
43448,53283
43436,53231
43433,53218
43429,53190
43424,53182
43421,53195
43412,53176
43422,53164
43414,53175
43432,53163
43422,53161
43408,53156
43410,53165
43422,53148
43408,53155
43424,53137
43408,53151
43417,53117
43405,53129
43389,53113
43390,53096
43391,53102
43395,53098
43386,53082
43406,53106
43407,53086
43406,53081
43412,53103
43408,53113
43403,53117
43409,53112
43408,53127
43410,53119
43402,53118
43398,53125
43396,53120
43399,53133
43397,53121
43412,53123
43404,53116
43406,53116
43400,53114
43404,53097
43401,53112
43410,53122
43403,53137
43416,53146
43424,53138
43414,53149
43424,53143
43413,53148
43429,53170
43438,53158
43432,53175
43430,53180
43419,53197
43434,53204
43452,53197
43434,53227
43437,53218
43447,53226
43449,53216
43446,53231
43448,53256
43446,53249
43457,53235
43435,53270
43456,53259
43459,53260
43474,53275
43461,53272
43460,53290
43465,53291
43475,53313
43480,53303
43470,53322
43469,53321
43489,53323
43474,53332
43491,53336
43480,53359
43485,53354
43488,53364
43488,53370
43501,53381
43505,53376
43513,53381
43510,53410
43497,53409
43505,53410
43519,53416
43523,53434
43507,53434
43519,53434
43513,53436
43513,53466
43534,53472
43528,53475
43525,53472
43531,53483
43535,53511
43551,53507
43541,53510
43561,53506
43562,53529
43552,53512
43550,53512
43542,53498
43532,53449
43515,53429
43485,53380
43484,53338
43480,53302
43483,53266
43458,53223
43453,53209
43455,53179
43439,53177
43441,53165
43440,53162
43434,53158
43454,53154
43418,53171
43454,53172
43434,53168
43457,53161
43445,53136
43451,53150
43443,53155
43435,53140
43443,53121
43434,53131
43433,53114
43426,53118
43439,53103
43410,53115
43421,53108
43446,53115
43420,53097
43442,53118
43429,53116
43431,53111
43439,53126
43453,53138
43447,53140
43426,53151
43427,53149
43448,53133
43428,53138
43445,53142
43431,53141
43435,53124
43440,53137
43451,53132
43437,53128
43439,53129
43440,53129
43445,53146
43446,53137
43466,53153
43460,53157
43452,53160
43459,53154
43464,53161
43449,53170
43461,53190
43472,53188
43474,53195
43476,53214
43462,53210
43467,53220
43465,53215
43474,53234
43477,53240
43487,53247
43479,53246
43497,53269
43484,53262
43491,53257
43507,53271
43492,53304
43484,53283
43488,53288
43498,53291
43507,53316
43494,53296
43497,53312
43501,53308
43504,53318
43500,53327
43519,53327
43508,53342
43520,53345
43530,53347
43519,53342
43510,53364
43526,53364
43533,53370
43534,53375
43536,53432
43533,53395
43537,53381
43538,53380
43556,53399
43524,53410
43547,53422
43542,53420
43541,53433
43556,53446
43550,53445
43576,53464
43597,53458
43583,53472
43575,53485
43564,53483
43535,53501
43542,53518
43574,53506
43565,53503
43566,53485
43551,53442
43540,53428
43516,53387
43497,53355
43496,53296
43488,53260
43476,53235
43463,53204
43457,53186
43459,53171
43447,53164
43454,53143
43452,53143
43462,53123
43464,53139
43457,53142
43458,53142
43476,53135
43452,53142
43451,53126
43449,53139
43446,53114
43450,53140
43447,53096
43442,53093
43430,53100
43433,53076
43425,53080
43417,53086
43444,53081
43439,53086
43434,53088
43441,53080
43443,53097
43433,53101
43439,53108
43452,53114
43444,53104
43445,53105
43445,53095
43451,53094
43442,53116
43447,53085
43431,53087
43426,53086
43434,53087
43450,53080
43437,53093
43434,53101
43439,53094
43429,53109
43445,53095
43444,53122
43440,53117
43462,53135
43450,53133
43456,53134
43452,53145
43466,53150
43471,53151
43465,53171
43450,53169
43463,53186
43470,53192
43472,53199
43470,53191
43461,53201
43465,53213
43484,53212
43476,53232
43490,53227
43480,53221
43485,53254
43497,53251
43491,53262
43495,53252
43509,53281
43501,53281
43505,53262
43514,53281
43500,53286
43499,53297
43513,53303
43506,53311
43517,53315
43508,53322
43512,53334
43521,53341
43511,53338
43531,53330
43533,53346
43524,53362
43543,53362
43540,53369
43538,53385
43530,53396
43530,53398
43550,53398
43552,53409
43559,53420
43553,53408
43543,53433
43545,53432
43559,53450
43583,53442
43557,53450
43565,53462
43574,53468
43582,53484
43576,53495
43592,53507
43586,53509
43585,53521
43586,53520
43594,53531
43572,53537
43594,53531
43557,53523
43568,53489
43548,53429
43541,53393
43533,53346
43513,53307
43489,53271
43495,53232
43490,53217
43487,53190
43473,53164
43465,53168
43487,53154
43480,53146
43471,53146
43484,53144
43457,53142
43477,53129
43454,53155
43460,53129
43472,53126
43470,53117
43477,53117
43457,53121
43451,53096
43453,53085
43463,53082
43449,53084
43451,53072
43446,53078
43456,53070
43459,53074
43456,53081
43456,53102
43455,53090
43459,53084
43468,53103
43458,53105
43463,53106
43460,53110
43441,53123
43464,53095
43473,53105
43448,53110
43460,53109
43457,53104
43445,53080
43451,53089
43459,53110
43464,53081
43466,53111
43463,53103
43470,53110
43457,53125
43473,53126
43481,53123
43461,53140
43488,53151
43482,53152
43476,53158
43495,53164
43489,53168
43486,53166
43487,53199
43504,53193
43500,53207
43499,53212
43492,53212
43496,53223
43511,53209
43512,53248
43503,53233
43501,53247
43499,53240
43516,53250
43503,53267
43521,53272
43529,53254
43515,53290
43524,53284
43528,53272
43526,53293
43531,53302
43536,53308
43526,53312
43529,53323
43540,53327
43524,53332
43541,53343
43524,53347
43529,53342
43551,53343
43563,53362
43552,53370
43531,53369
43545,53396
43539,53384
43555,53399
43557,53417
43558,53411
43563,53420
43562,53428
43556,53432
43579,53452
43563,53427
43566,53443
43574,53441
43583,53451
43578,53462
43582,53482
43588,53480
43594,53501
43598,53489
43583,53493
43579,53474
43564,53437
43549,53410
43530,53368
43501,53323
43499,53275
43493,53263
43507,53240
43492,53193
43475,53115
43471,53097
43474,53098
43464,53108
43480,53119
43466,53143
43460,53123
43478,53120
43466,53120
43469,53128
43492,53130
43508,53134
43477,53130
43457,53120
43459,53095
43450,53086
43448,53104
43456,53098
43452,53093
43447,53091
43452,53088
43464,53091
43471,53102
43466,53107
43455,53115
43467,53130
43469,53116
43460,53128
43468,53115
43457,53109
43478,53110
43474,53108
43472,53098
43448,53118
43461,53108
43459,53103
43456,53113
43461,53111
43464,53126
43464,53123
43456,53115
43477,53123
43465,53122
43467,53137
43464,53145
43475,53160
43473,53161
43481,53174
43484,53166
43482,53191
43490,53178
43487,53184
43479,53199
43491,53209
43491,53211
43490,53231
43510,53223
43505,53231
43496,53242
43493,53236
43520,53262
43511,53259
43511,53264
43496,53290
43509,53285
43509,53276
43520,53292
43519,53296
43524,53286
43543,53328
43519,53319
43528,53330
43542,53341
43530,53355
43533,53358
43521,53349
43539,53365
43532,53376
43566,53366
43547,53379
43544,53396
43553,53402
43565,53393
43572,53412
43577,53422
43585,53426
43557,53453
43572,53444
43571,53445
43581,53468
43569,53460
43586,53475
43566,53487
43587,53477
43577,53501
43580,53495
43599,53508
43580,53527
43583,53530
43591,53532
43589,53514
43576,53497
43556,53456
43564,53435
43553,53385
43529,53370
43521,53335
43507,53299
43506,53279
43494,53258
43500,53261
43498,53245
43495,53244
43478,53245
43491,53272
43512,53253
43509,53263
43509,53243
43509,53263
43520,53269
43506,53266
43490,53261
43499,53270
43501,53239
43495,53250
43481,53230
43491,53246
43495,53240
43495,53223
43492,53222
43504,53231
43494,53228
43495,53238
43495,53230
43516,53246
43504,53257
43519,53251
43514,53271
43511,53277
43501,53250
43511,53264
43495,53270
43494,53260
43511,53273
43494,53267
43513,53263
43494,53274
43516,53271
43499,53253
43502,53272
43514,53274
43518,53269
43509,53284
43525,53293
43517,53293
43524,53303
43513,53288
43519,53306
43532,53311
43511,53337
43510,53335
43531,53321
43521,53334
43525,53340
43535,53350
43532,53371
43524,53372
43524,53374
43544,53378
43542,53383
43537,53372
43551,53401
43540,53414
43572,53401
43551,53407
43552,53414
43554,53426
43553,53431
43573,53450
43554,53447
43551,53442
43562,53447
43563,53440
43572,53467
43567,53462
43565,53479
43573,53473
43574,53496
43573,53491
43568,53493
43562,53503
43585,53515
43555,53522
43569,53517
43586,53534
43584,53530
43570,53548
43587,53548
43586,53544
43587,53544
43601,53563
43590,53572
43590,53574
43593,53563
43601,53585
43611,53593
43612,53604
43607,53620
43610,53620
43613,53618
43611,53640
43625,53633
43628,53637
43622,53655
43615,53642
43616,53660
43596,53658
43600,53618
43582,53582
43579,53571
43562,53514
43561,53495
43557,53467
43535,53437
43532,53425
43520,53415
43541,53398
43529,53394
43539,53420
43542,53413
43523,53391
43523,53412
43546,53412
43544,53399
43550,53408
43535,53409
43541,53421
43535,53400
43542,53416
43528,53414
43538,53413
43527,53395
43538,53378
43534,53388
43533,53392
43537,53387
43525,53382
43532,53390
43533,53381
43542,53383
43535,53392
43529,53394
43533,53382
43526,53387
43526,53382
43536,53379
43540,53400
43526,53395
43535,53396
43526,53387
43522,53341
43539,53336
43522,53351
43535,53374
43529,53380
43529,53386
43525,53392
43528,53397
43522,53395
43523,53401
43560,53392
43562,53398
43548,53416
43512,53403
43539,53411
43518,53422
43544,53422
43542,53435
43551,53419
43537,53432
43548,53443
43549,53431
43551,53442
43550,53450
43556,53464
43540,53451
43547,53464
43545,53460
43544,53468
43548,53468
43554,53481
43543,53480
43563,53489
43554,53491
43563,53495
43562,53498
43561,53506
43559,53514
43569,53520
43576,53523
43566,53529
43566,53526
43559,53543
43564,53533
43577,53537
43578,53550
43578,53555
43580,53554
43576,53572
43584,53562
43585,53581
43586,53573
43591,53588
43585,53591
43587,53615
43597,53619
43594,53604
43586,53613
43611,53630
43598,53604
43591,53632
43606,53644
43609,53635
43600,53660
43591,53653
43599,53665
43612,53653
43589,53662
43589,53633
43597,53606
43577,53565
43567,53542
43569,53494
43546,53485
43534,53462
43530,53443
43527,53434
43532,53418
43527,53413
43521,53418
43534,53418
43530,53421
43533,53423
43526,53422
43517,53419
43527,53417
43542,53422
43536,53420
43529,53397
43540,53410
43526,53401
43529,53392
43524,53367
43521,53360
43516,53357
43519,53354
43507,53354
43514,53345
43515,53353
43497,53365
43513,53373
43497,53376
43510,53358
43506,53382
43515,53378
43512,53383
43522,53362
43520,53372
43529,53369
43506,53378
43515,53366
43512,53368
43524,53371
43511,53357
43514,53363
43514,53361
43530,53368
43524,53363
43517,53366
43518,53389
43531,53403
43523,53382
43516,53383
43526,53396
43526,53404
43513,53404
43520,53396
43525,53410
43523,53409
43537,53409
43544,53431
43542,53430
43535,53439
43534,53447
43540,53441
43536,53457
43544,53464
43541,53452
43537,53462
43544,53471
43553,53473
43536,53473
43537,53483
43551,53486
43550,53486
43543,53502
43550,53494
43559,53508
43565,53522
43550,53511
43557,53519
43564,53518
43570,53532
43558,53532
43560,53531
43575,53552
43560,53545
43573,53559
43575,53559
43562,53555
43576,53554
43566,53566
43580,53575
43572,53575
43573,53574
43579,53592
43583,53598
43582,53610
43582,53614
43566,53610
43588,53611
43577,53621
43602,53620
43587,53643
43585,53638
43578,53636
43596,53644
43585,53652
43607,53653
43614,53665
43599,53681
43599,53673
43606,53662
43610,53671
43601,53655
43581,53633
43567,53605
43552,53554
43550,53534
43550,53498
43524,53490
43531,53455
43520,53452
43519,53433
43519,53424
43517,53426
43518,53434
43527,53428
43523,53423
43517,53435
43520,53414
43525,53426
43524,53437
43513,53422
43517,53415
43517,53416
43519,53401
43505,53398
43521,53401
43500,53382
43497,53364
43500,53378
43510,53366
43500,53373
43498,53377
43500,53368
43501,53376
43495,53367
43514,53375
43515,53370
43516,53380
43513,53381
43508,53380
43495,53360
43491,53373
43494,53369
43500,53363
43495,53365
43491,53359
43497,53357
43494,53356
43501,53364
43500,53370
43514,53375
43504,53354
43508,53355
43519,53376
43505,53384
43509,53372
43515,53377
43511,53406
43515,53384
43510,53402
43521,53405
43516,53404
43502,53399
43516,53402
43501,53425
43518,53409
43510,53421
43510,53439
43508,53416
43517,53432
43533,53431
43518,53449
43505,53456
43526,53448
43527,53454
43525,53488
43526,53484
43536,53452
43538,53438
43543,53463
43546,53480
43542,53490
43520,53486
43529,53509
43539,53508
43526,53513
43548,53509
43557,53517
43538,53515
43541,53529
43528,53540
43556,53540
43529,53539
43531,53550
43549,53555
43554,53567
43563,53573
43557,53574
43562,53585
43555,53576
43566,53582
43554,53602
43571,53595
43571,53601
43563,53616
43581,53605
43562,53618
43559,53625
43572,53648
43582,53643
43582,53622
43585,53641
43560,53629
43570,53599
43546,53590
43541,53561
43531,53520
43526,53472
43516,53454
43509,53426
43486,53418
43499,53396
43504,53393
43479,53377
43496,53369
43491,53383
43490,53376
43496,53361
43500,53356
43493,53343
43498,53362
43490,53370
43487,53354
43481,53360
43491,53348
43493,53345
43468,53325
43457,53321
43470,53313
43464,53295
43474,53289
43463,53285
43471,53296
43480,53299
43469,53294
43480,53286
43469,53313
43477,53303
43472,53305
43474,53307
43484,53321
43470,53309
43474,53327
43459,53325
43469,53309
43476,53310
43490,53299
43461,53313
43463,53318
43488,53298
43467,53301
43474,53304
43458,53314
43479,53318
43484,53313
43491,53316
43474,53317
43469,53334
43479,53350
43479,53335
43496,53334
43477,53341
43491,53364
43475,53362
43496,53355
43492,53369
43505,53380
43474,53390
43497,53389
43499,53391
43506,53394
43507,53406
43492,53401
43500,53400
43504,53412
43509,53424
43512,53437
43492,53436
43504,53452
43508,53441
43528,53457
43518,53451
43524,53453
43511,53454
43526,53489
43521,53476
43517,53480
43526,53495
43529,53486
43526,53500
43528,53509
43520,53517
43539,53537
43543,53524
43532,53533
43534,53543
43538,53538
43546,53559
43556,53561
43557,53566
43550,53565
43543,53575
43537,53578
43548,53581
43559,53586
43553,53607
43554,53598
43558,53600
43561,53607
43564,53618
43574,53604
43575,53621
43567,53638
43587,53637
43581,53645
43569,53646
43580,53655
43568,53665
43583,53671
43593,53667
43590,53679
43598,53681
43611,53701
43591,53693
43605,53708
43598,53683
43605,53697
43579,53682
43560,53632
43553,53602
43546,53576
43526,53524
43532,53497
43508,53480
43514,53450
43499,53439
43489,53414
43489,53414
43500,53411
43495,53403
43492,53400
43484,53391
43511,53404
43491,53408
43506,53393
43500,53414
43498,53402
43483,53396
43488,53398
43490,53391
43490,53391
43494,53364
43465,53365
43472,53345
43490,53351
43479,53352
43488,53349
43487,53350
43476,53359
43477,53351
43475,53347
43475,53351
43467,53356
43487,53361
43479,53338
43473,53359
43478,53355
43484,53331
43474,53343
43473,53339
43472,53348
43459,53327
43479,53319
43469,53345
43469,53329
43473,53339
43475,53339
43465,53346
43465,53343
43475,53336
43464,53344
43474,53349
43464,53343
43494,53362
43475,53342
43479,53355
43487,53383
43471,53389
43480,53392
43489,53391
43485,53398
43483,53399
43476,53413
43509,53421
43498,53402
43504,53423
43500,53422
43498,53436
43495,53437
43490,53439
43515,53429
43501,53455
43509,53450
43508,53449
43521,53457
43506,53474
43498,53461
43498,53498
43523,53482
43520,53474
43513,53495
43520,53507
43518,53506
43520,53519
43523,53505
43510,53519
43525,53516
43535,53540
43535,53522
43533,53538
43522,53542
43544,53541
43532,53555
43535,53564
43542,53559
43533,53578
43544,53593
43548,53584
43560,53574
43551,53569
43547,53578
43567,53601
43552,53614
43547,53618
43561,53619
43577,53629
43557,53606
43546,53594
43565,53567
43542,53526
43523,53501
43491,53457
43460,53418
43465,53384
43467,53368
43486,53335
43464,53315
43472,53310
43457,53304
43471,53315
43457,53306
43457,53320
43451,53315
43477,53297
43478,53314
43459,53302
43446,53274
43449,53268
43456,53283
43461,53259
43447,53269
43448,53238
43447,53234
43445,53222
43444,53225
43450,53223
43433,53229
43436,53224
43447,53220
43453,53246
43461,53244
43437,53248
43462,53245
43466,53253
43452,53261
43436,53249
43451,53247
43442,53250
43454,53253
43470,53245
43453,53244
43465,53250
43455,53255
43471,53250
43438,53249
43461,53237
43439,53240
43460,53238
43463,53243
43452,53245
43459,53262
43472,53275
43461,53270
43461,53282
43474,53277
43459,53297
43465,53315
43468,53304
43472,53288
43475,53322
43487,53338
43490,53340
43504,53349
43504,53338
43499,53347
43498,53365
43490,53366
43503,53375
43506,53377
43501,53386
43508,53378
43503,53391
43524,53385
43508,53394
43515,53391
43518,53401
43519,53416
43517,53424
43524,53434
43527,53441
43533,53433
43550,53447
43531,53450
43534,53452
43536,53467
43534,53474
43547,53480
43537,53489
43553,53495
43569,53493
43552,53518
43565,53509
43557,53527
43543,53536
43555,53531
43551,53533
43556,53548
43577,53555
43561,53558
43578,53566
43581,53571
43578,53563
43592,53576
43584,53591
43589,53604
43590,53613
43587,53613
43609,53611
43605,53634
43597,53625
43608,53632
43605,53629
43605,53654
43607,53654
43602,53651
43614,53643
43599,53614
43570,53572
43566,53527
43541,53500
43539,53440
43526,53420
43524,53397
43512,53371
43505,53336
43523,53326
43515,53330
43516,53321
43502,53312
43504,53319
43514,53322
43509,53306
43505,53310
43509,53310
43504,53318
43511,53315
43494,53322
43499,53290
43508,53311
43487,53293
43493,53280
43508,53286
43504,53270
43491,53272
43500,53272
43484,53265
43498,53264
43502,53274
43495,53267
43510,53274
43497,53276
43513,53283
43489,53280
43498,53275
43495,53279
43499,53290
43492,53283
43494,53261
43496,53256
43502,53250
43500,53249
43492,53261
43496,53261
43496,53251
43491,53271
43493,53258
43506,53285
43501,53268
43507,53279
43506,53278
43513,53300
43503,53296
43518,53283
43517,53298
43507,53297
43509,53315
43514,53314
43515,53316
43516,53327
43528,53328
43513,53332
43528,53340
43520,53331
43529,53356
43533,53358
43517,53350
43531,53365
43532,53380
43536,53378
43547,53362
43542,53398
43541,53392
43534,53399
43535,53391
43546,53404
43549,53407
43559,53410
43544,53415
43547,53428
43552,53422
43553,53450
43561,53436
43567,53461
43561,53473
43564,53459
43547,53444
43556,53437
43542,53424
43540,53407
43536,53358
43521,53322
43509,53292
43477,53246
43468,53245
43472,53208
43494,53178
43465,53174
43463,53168
43465,53141
43477,53142
43465,53147
43471,53139
43450,53153
43473,53137
43463,53129
43461,53132
43482,53146
43461,53098
43457,53134
43469,53110
43457,53104
43444,53099
43457,53085
43440,53081
43453,53098
43437,53072
43447,53073
43450,53080
43445,53083
43449,53107
43451,53090
43463,53111
43462,53137
43464,53129
43457,53107
43449,53092
43457,53111
43450,53091
43466,53097
43466,53111
43467,53121
43475,53093
43460,53104
43449,53118
43468,53106
43487,53122
43485,53123
43465,53115
43448,53135
43448,53134
43447,53135
43460,53154
43471,53160
43484,53157
43484,53165
43487,53190
43487,53187
43480,53174
43483,53197
43505,53211
43496,53205
43492,53215
43491,53210
43504,53238
43498,53232
43504,53247
43517,53241
43496,53244
43499,53252
43497,53265
43525,53278
43523,53277
43525,53279
43509,53286
43512,53297
43530,53312
43526,53314
43530,53313
43527,53316
43537,53341
43546,53349
43542,53344
43549,53355
43533,53366
43563,53359
43540,53366
43558,53374
43546,53391
43564,53390
43563,53408
43545,53403
43561,53402
43560,53423
43569,53432
43570,53429
43577,53429
43577,53446
43579,53462
43573,53474
43594,53478
43572,53479
43586,53471
43595,53490
43596,53494
43605,53496
43602,53512
43595,53523
43596,53533
43615,53529
43622,53534
43599,53549
43622,53556
43618,53569
43611,53558
43620,53594
43627,53585
43636,53589
43627,53602
43620,53581
43616,53577
43608,53537
43607,53513
43575,53445
43572,53412
43566,53390
43534,53332
43528,53308
43520,53266
43506,53239
43498,53234
43501,53231
43507,53232
43510,53212
43512,53234
43522,53212
43511,53217
43511,53226
43520,53224
43515,53213
43513,53203
43520,53223
43506,53205
43500,53187
43509,53171
43490,53169
43493,53159
43480,53165
43489,53144
43480,53148
43491,53141
43480,53159
43484,53163
43502,53167
43492,53158
43496,53168
43490,53155
43497,53164
43488,53180
43495,53156
43498,53156
43489,53170
43496,53157
43491,53161
43494,53142
43475,53148
43490,53150
43496,53139
43480,53132
43480,53142
43490,53143
43508,53139
43479,53144
43511,53147
43496,53153
43508,53170
43493,53165
43490,53176
43504,53181
43504,53204
43514,53193
43493,53200
43505,53203
43513,53205
43520,53208
43517,53215
43516,53214
43520,53214
43516,53219
43514,53248
43518,53253
43515,53225
43533,53250
43535,53248
43541,53260
43536,53269
43520,53272
43533,53287
43543,53282
43537,53291
43539,53285
43538,53300
43531,53302
43544,53298
43543,53300
43547,53312
43535,53323
43552,53320
43544,53334
43564,53327
43549,53334
43556,53353
43551,53340
43551,53348
43545,53346
43536,53341
43535,53338
43544,53280
43530,53270
43506,53219
43502,53199
43474,53141
43471,53124
43465,53091
43466,53050
43449,53065
43453,53046
43452,53015
43449,53004
43443,53024
43445,53022
43446,53008
43448,53014
43456,53005
43453,53004
43436,53007
43450,53002
43454,52988
43447,52998
43439,52978
43424,52972
43440,52960
43418,52940
43430,52960
43430,52955
43416,52961
43422,52953
43439,52955
43422,52972
43435,52978
43435,52976
43434,52993
43458,52981
43431,52985
43446,52995
43434,52978
43446,52979
43432,52991
43442,53000
43432,52986
43435,52974
43440,52982
43434,52974
43444,52986
43451,53002
43435,52994
43439,52988
43431,53006
43450,53013
43457,53014
43449,53010
43472,53032
43477,53029
43464,53075
43470,53051
43472,53055
43469,53072
43459,53075
43476,53062
43474,53084
43490,53107
43480,53103
43495,53107
43478,53116
43491,53130
43489,53138
43473,53133
43485,53148
43505,53154
43491,53168
43502,53169
43495,53169
43490,53196
43515,53202
43504,53182
43516,53164
43521,53182
43519,53206
43533,53206
43515,53213
43535,53220
43532,53232
43541,53252
43544,53247
43542,53248
43556,53257
43567,53265
43538,53284
43529,53281
43525,53280
43531,53293
43536,53304
43555,53311
43556,53306
43550,53333
43549,53331
43569,53342
43571,53356
43564,53366
43578,53365
43574,53370
43562,53369
43579,53385
43566,53404
43595,53414
43584,53405
43601,53407
43575,53413
43597,53416
43595,53439
43597,53443
43591,53444
43600,53450
43603,53468
43599,53471
43613,53481
43614,53479
43603,53494
43618,53503
43631,53511
43622,53514
43639,53502
43614,53516
43625,53519
43620,53488
43600,53449
43575,53406
43565,53360
43552,53343
43557,53276
43534,53251
43542,53224
43517,53208
43505,53211
43521,53193
43517,53190
43517,53166
43519,53187
43527,53183
43518,53192
43521,53204
43528,53181
43517,53184
43524,53192
43516,53184
43522,53204
43518,53181
43519,53164
43520,53157
43517,53142
43500,53143
43518,53151
43500,53139
43503,53147
43501,53157
43509,53152
43516,53154
43503,53160
43509,53155
43521,53188
43531,53181
43533,53170
43516,53177
43527,53193
43528,53180
43525,53171
43525,53169
43522,53170
43527,53176
43522,53180
43514,53164
43529,53171
43523,53170
43540,53183
43513,53190
43541,53195
43549,53214
43537,53205
43522,53209
43534,53210
43546,53222
43559,53222
43551,53225
43551,53228
43547,53246
43546,53261
43546,53252
43570,53260
43560,53264
43570,53257
43564,53273
43552,53282
43570,53297
43566,53293
43571,53297
43574,53305
43589,53315
43580,53316
43598,53320
43567,53341
43591,53324
43566,53354
43573,53330
43589,53342
43603,53353
43586,53367
43596,53372
43603,53373
43591,53382
43598,53396
43602,53390
43591,53384
43613,53399
43610,53406
43610,53422
43610,53416
43616,53430
43618,53434
43619,53442
43619,53452
43629,53450
43628,53454
43621,53458
43624,53465
43631,53471
43639,53480
43619,53489
43639,53496
43635,53498
43640,53514
43652,53510
43649,53507
43655,53528
43655,53538
43651,53534
43649,53552
43639,53547
43642,53504
43628,53468
43626,53454
43597,53400
43596,53384
43590,53350
43587,53340
43565,53311
43563,53294
43556,53286
43565,53277
43558,53263
43559,53279
43565,53267
43566,53277
43575,53274
43564,53280
43558,53278
43560,53270
43564,53271
43558,53262
43559,53270
43563,53258
43558,53249
43547,53241
43542,53231
43547,53248
43552,53218
43549,53229
43545,53257
43548,53243
43549,53239
43551,53240
43552,53245
43550,53260
43553,53249
43543,53256
43555,53247
43558,53265
43552,53255
43563,53236
43547,53230
43541,53236
43572,53239
43551,53226
43561,53228
43544,53262
43558,53249
43561,53256
43564,53254
43564,53261
43560,53258
43551,53257
43575,53257
43561,53267
43562,53288
43572,53276
43562,53297
43583,53297
43575,53300
43579,53319
43577,53321
43581,53322
43574,53316
43568,53325
43568,53324
43598,53328
43595,53342
43579,53353
43581,53349
43585,53363
43589,53355
43604,53358
43600,53363
43600,53366
43600,53373
43597,53403
43602,53377
43610,53389
43596,53384
43617,53401
43605,53373
43610,53410
43616,53429
43617,53426
43622,53432
43622,53433
43623,53434
43633,53457
43637,53449
43619,53452
43651,53470
43638,53472
43632,53481
43642,53503
43617,53501
43648,53544
43648,53532
43627,53491
43645,53493
43645,53535
43640,53528
43656,53551
43657,53540
43644,53559
43668,53571
43669,53578
43683,53582
43689,53570
43701,53576
43655,53581
43632,53562
43617,53401
43619,53499
43603,53462
43597,53433
43592,53399
43572,53368
43587,53361
43566,53336
43584,53327
43577,53297
43568,53300
43570,53295
43570,53293
43570,53282
43585,53298
43573,53296
43570,53289
43585,53292
43566,53279
43555,53274
43561,53281
43566,53256
43557,53254
43556,53254
43561,53235
43540,53225
43547,53218
43546,53214
43550,53216
43568,53218
43539,53218
43553,53234
43545,53222
43554,53239
43545,53232
43559,53237
43562,53232
43565,53238
43549,53233
43546,53227
43559,53228
43549,53243
43547,53220
43564,53217
43554,53223
43567,53239
43550,53217
43560,53222
43558,53222
43568,53241
43554,53237
43562,53223
43553,53236
43569,53253
43572,53251
43575,53255
43567,53272
43574,53279
43583,53282
43575,53284
43571,53285
43590,53303
43591,53314
43580,53320
43578,53298
43584,53308
43586,53328
43596,53345
43572,53336
43596,53344
43599,53339
43614,53349
43600,53356
43618,53373
43611,53378
43628,53379
43617,53386
43607,53384
43617,53391
43616,53402
43610,53388
43625,53400
43624,53400
43619,53425
43637,53441
43632,53422
43658,53438
43639,53439
43626,53442
43632,53443
43639,53458
43649,53470
43655,53488
43651,53471
43640,53482
43650,53483
43648,53500
43665,53514
43653,53501
43666,53508
43672,53523
43655,53533
43682,53546
43656,53547
43668,53561
43671,53553
43682,53556
43678,53577
43668,53564
43687,53584
43666,53584
43687,53592
43703,53600
43703,53610
43696,53606
43685,53608
43705,53612
43688,53635
43693,53620
43698,53620
43661,53575
43668,53555
43636,53515
43626,53476
43636,53448
43611,53423
43597,53392
43599,53378
43601,53365
43602,53358
43596,53343
43609,53343
43607,53339
43596,53330
43605,53333
43601,53309
43614,53340
43592,53332
43596,53347
43612,53342
43593,53343
43599,53318
43598,53331
43585,53320
43597,53300
43587,53302
43597,53294
43583,53300
43579,53284
43569,53293
43582,53299
43594,53290
43590,53303
43585,53303
43602,53292
43591,53291
43597,53282
43590,53307
43575,53288
43581,53300
43602,53288
43578,53286
43584,53297
43576,53280
43581,53278
43569,53276
43571,53276
43579,53274
43591,53281
43579,53285
43580,53279
43601,53287
43589,53300
43602,53313
43596,53308
43583,53331
43594,53311
43604,53331
43582,53328
43590,53332
43590,53344
43601,53329
43600,53340
43612,53346
43592,53364
43607,53360
43607,53370
43605,53373
43610,53364
43612,53383
43600,53384
43618,53395
43610,53394
43619,53400
43625,53397
43620,53411
43602,53414
43618,53420
43630,53421
43631,53439
43619,53444
43635,53431
43623,53438
43657,53440
43633,53457
43635,53447
43634,53457
43636,53475
43645,53480
43628,53479
43642,53478
43643,53488
43643,53495
43627,53503
43644,53502
43650,53512
43654,53519
43668,53536
43659,53548
43645,53533
43660,53551
43654,53538
43642,53546
43665,53567
43662,53559
43665,53558
43658,53548
43659,53506
43641,53475
43621,53433
43612,53406
43586,53359
43580,53343
43575,53312
43569,53289
43575,53276
43540,53248
43561,53250
43565,53260
43525,53235
43551,53233
43556,53263
43560,53279
43556,53250
43555,53211
43559,53208
43553,53204
43538,53212
43558,53194
43539,53203
43543,53182
43543,53170
43528,53180
43529,53161
43567,53157
43557,53168
43528,53168
43500,53171
43525,53167
43524,53168
43513,53178
43531,53185
43540,53198
43535,53181
43523,53180
43528,53176
43543,53194
43541,53165
43515,53176
43534,53192
43542,53157
43514,53176
43530,53189
43535,53185
43522,53178
43541,53177
43521,53193
43543,53182
