43924,57531
43917,57542
43927,57525
43923,57545
43928,57530
43918,57547
43931,57548
43914,57553
43932,57548
43929,57553
43925,57565
43948,57560
43938,57546
43933,57558
43937,57543
43900,57518
43921,57518
43911,57509
43901,57498
43903,57484
43901,57461
43903,57458
43899,57445
43903,57459
43885,57453
43907,57454
43896,57444
43893,57462
43904,57453
43904,57444
43908,57456
43904,57456
43901,57476
43910,57439
43895,57454
43891,57437
43898,57438
43892,57429
43894,57436
43886,57439
43880,57416
43890,57423
43895,57418
43874,57420
43881,57407
43885,57420
43899,57406
43891,57431
43890,57421
43903,57426
43882,57427
43885,57437
43886,57419
43901,57436
43885,57428
43895,57427
43886,57427
43887,57423
43885,57416
43896,57429
43899,57417
43894,57416
43886,57418
43890,57427
43884,57428
43894,57417
43890,57428
43888,57420
43888,57427
43893,57422
43899,57435
43903,57423
43903,57437
43899,57423
43900,57442
43902,57435
43894,57439
43898,57441
43893,57434
43915,57428
43905,57440
43894,57430
43908,57431
43899,57447
43897,57447
43914,57440
43910,57439
43892,57436
43907,57460
43893,57452
43904,57449
43909,57466
43896,57456
43908,57459
43905,57453
43908,57440
43894,57465
43923,57462
43896,57450
43903,57460
43899,57475
43907,57472
43895,57468
43920,57460
43900,57485
43892,57489
43918,57477
43911,57481
43918,57484
43911,57478
43925,57490
43901,57486
43905,57483
43915,57493
43919,57496
43903,57494
43906,57507
43915,57505
43910,57505
43911,57505
43931,57515
43923,57519
43924,57512
43916,57508
43934,57506
43925,57525
43936,57518
43911,57536
43921,57522
43929,57524
43929,57534
43923,57532
43939,57530
43920,57539
43929,57527
43938,57540
43921,57574
43920,57558
43930,57555
43937,57551
43938,57567
43929,57568
43928,57562
43945,57565
43937,57583
43945,57568
43935,57574
43941,57588
43941,57589
43940,57592
43940,57589
43918,57604
43948,57578
43958,57581
43941,57608
43934,57579
43939,57481
43922,57478
43923,57511
43911,57477
43902,57487
43918,57478
43915,57495
43919,57466
43929,57486
43921,57502
43930,57499
43945,57484
43884,57491
43888,57484
43935,57500
43914,57493
43907,57488
43913,57499
43912,57474
43924,57484
43919,57482
43914,57465
43915,57461
43914,57463
43907,57476
43918,57461
43917,57477
43912,57475
43903,57481
43938,57466
43905,57476
43925,57463
43909,57472
43930,57480
43914,57478
43925,57474
43928,57472
43933,57474
43920,57482
43921,57477
43911,57471
43936,57482
43941,57482
43918,57484
43926,57479
43923,57477
43903,57469
43923,57476
43938,57487
43933,57482
43921,57480
43921,57486
43944,57483
43924,57477
43916,57505
43923,57493
43931,57504
43922,57507
43924,57503
43924,57503
43931,57502
43949,57493
43948,57503
43941,57513
43935,57512
43927,57502
43930,57514
43947,57499
43947,57527
43938,57499
43943,57503
43932,57517
43944,57520
43937,57510
43928,57514
43946,57534
43944,57529
43950,57526
43943,57550
43944,57537
43961,57520
43954,57523
43962,57538
43955,57536
43954,57542
43946,57543
43959,57552
43947,57551
43942,57547
43964,57559
43961,57541
43949,57566
43959,57552
43946,57563
43946,57573
43947,57572
43953,57574
43956,57578
43975,57578
43957,57578
43939,57581
43960,57589
43961,57584
43957,57596
43954,57579
43972,57605
43971,57596
43972,57605
43972,57610
43965,57610
43970,57605
43955,57630
43953,57609
43973,57621
43973,57625
43973,57617
43959,57620
43968,57631
43977,57631
43985,57617
43985,57623
43965,57641
43971,57639
43983,57645
43986,57650
43959,57640
43978,57649
43988,57644
43980,57660
43988,57647
43977,57665
43982,57656
43978,57657
43983,57669
43985,57651
43983,57661
43975,57639
43968,57647
43970,57614
43960,57599
43952,57589
43956,57569
43966,57574
43959,57558
43947,57563
43955,57552
43963,57562
43958,57558
43946,57550
43965,57548
43954,57554
43963,57581
43944,57574
43950,57561
43974,57559
43962,57558
43946,57551
43960,57557
43955,57539
43948,57551
43957,57546
43957,57526
43942,57525
43957,57526
43964,57530
43955,57535
43961,57543
43964,57541
43957,57533
43963,57542
43963,57527
43954,57537
43949,57526
43953,57534
43966,57536
43966,57533
43962,57535
43952,57536
43950,57530
43958,57534
43973,57536
43954,57514
43944,57510
43967,57519
43948,57526
43954,57517
43968,57522
43961,57523
43962,57523
43966,57522
43968,57518
43963,57533
43961,57535
43956,57524
43953,57523
43957,57529
43954,57529
43966,57543
43948,57523
43970,57527
43961,57525
43952,57531
43964,57534
43969,57533
43956,57536
43960,57533
43958,57540
43957,57548
43959,57536
43962,57546
43964,57536
43965,57533
43962,57545
43967,57550
43956,57539
43971,57547
43961,57555
43967,57539
43957,57550
43967,57544
43973,57551
43967,57546
43963,57552
43964,57557
43971,57540
43974,57554
43984,57552
43977,57562
43976,57553
43961,57565
43968,57534
43980,57557
43978,57570
43976,57563
43979,57565
43968,57566
43979,57563
43987,57568
43985,57571
43989,57566
43999,57586
43978,57582
43978,57575
43977,57598
43979,57596
43973,57615
43973,57575
43996,57550
43980,57586
43968,57596
43966,57595
43977,57596
44002,57581
43981,57600
43982,57616
44010,57608
44022,57613
43984,57601
43969,57607
43989,57608
43981,57612
43986,57607
44007,57615
43999,57627
43997,57628
43987,57639
44001,57628
44001,57639
44020,57622
43986,57637
44007,57651
43981,57622
43992,57617
43979,57596
43989,57601
43980,57557
43970,57565
43970,57537
43969,57521
43952,57511
43955,57509
43959,57505
43943,57506
43955,57495
43950,57501
43962,57496
43962,57499
43952,57493
43971,57501
43967,57516
43951,57508
43954,57483
43960,57477
43950,57482
43942,57463
43967,57476
43942,57471
43933,57450
43944,57448
43951,57444
43945,57448
43946,57443
43946,57433
43957,57446
43938,57434
43962,57429
43959,57454
43928,57454
43947,57456
43949,57446
43952,57450
43950,57418
43939,57428
43942,57439
43941,57425
43941,57422
43935,57423
43956,57414
43943,57397
43932,57408
43947,57405
43942,57406
43946,57419
43950,57414
43938,57406
43950,57425
43943,57414
43946,57411
43944,57391
43955,57402
43949,57411
43949,57409
43928,57400
43939,57419
43947,57414
43956,57402
43951,57409
43946,57408
43942,57426
43941,57418
43941,57415
43964,57412
43945,57421
43960,57402
43955,57417
43945,57403
43946,57413
43940,57416
43942,57409
43960,57413
43937,57424
43946,57420
43951,57418
43952,57416
43944,57418
43939,57425
43949,57427
43965,57434
43936,57437
43942,57431
43965,57419
43938,57438
43951,57415
43967,57421
43941,57438
43957,57434
43958,57445
43954,57442
43965,57436
43948,57444
43962,57434
43960,57442
43961,57457
43948,57443
43960,57447
43959,57455
43957,57466
43954,57464
43957,57455
43974,57453
43962,57458
43946,57456
43952,57474
43966,57479
43968,57476
43965,57471
43961,57480
43986,57487
43984,57479
43974,57477
43964,57483
43967,57482
43962,57493
43967,57502
43976,57490
43975,57505
43984,57494
43978,57509
43962,57500
43977,57507
43975,57513
43980,57514
43982,57528
43976,57522
43960,57511
43966,57519
43979,57526
43973,57531
43965,57532
43977,57543
43972,57525
43977,57520
43963,57494
43968,57465
43955,57453
43954,57440
43952,57427
43957,57402
43940,57397
43941,57377
43928,57380
43939,57379
43928,57374
43949,57372
43937,57373
43926,57367
43936,57392
43926,57375
43934,57370
43930,57373
43936,57360
43925,57370
43928,57372
43927,57366
43921,57343
43917,57350
43914,57327
43910,57322
43905,57328
43917,57313
43912,57319
43912,57292
43916,57306
43894,57299
43909,57303
43909,57311
43908,57295
43918,57304
43907,57289
43907,57300
43910,57305
43918,57297
43900,57272
43913,57293
43914,57275
43896,57277
43908,57252
43903,57269
43892,57270
43907,57254
43916,57261
43885,57265
43891,57236
43903,57245
43895,57260
43898,57261
43917,57247
43900,57241
43886,57251
43913,57261
43903,57252
43904,57273
43897,57242
43905,57251
43899,57238
43919,57224
43894,57256
43901,57238
43891,57260
43907,57241
43910,57254
43908,57243
43899,57232
43890,57254
43896,57238
43923,57255
43914,57259
43901,57248
43911,57260
43891,57262
43900,57263
43888,57270
43887,57228
43894,57250
43906,57253
43917,57239
43899,57259
43900,57251
43902,57251
43887,57252
43895,57270
43887,57250
43913,57252
43917,57256
43890,57249
43894,57268
43899,57238
43891,57265
43902,57272
43896,57244
43909,57266
43900,57265
43899,57279
43901,57267
43923,57296
43906,57272
43912,57267
43907,57279
43917,57291
43917,57281
43912,57275
43906,57282
43920,57280
43909,57305
43909,57283
43921,57311
43916,57296
43916,57289
43911,57297
43901,57306
43919,57307
43920,57302
43911,57315
43910,57307
43913,57304
43932,57301
43924,57299
43906,57303
43912,57281
43901,57267
43898,57242
43896,57232
43884,57202
43891,57178
43868,57168
43873,57148
43860,57150
43861,57115
43877,57134
43865,57136
43864,57130
43847,57120
43855,57113
43860,57118
43863,57116
43860,57112
43858,57092
43841,57096
43860,57096
43852,57079
43845,57069
43836,57065
43834,57059
43845,57043
43822,57019
43823,57038
43825,57020
43825,57025
43836,57001
43813,57008
43818,57015
43814,57009
43833,57011
43832,57009
43832,57012
43831,56984
43824,57003
43826,56993
43812,56998
43832,56997
43821,56971
43813,56980
43817,56986
43821,56967
43814,56976
43819,56959
43820,56951
43816,56943
43815,56965
43814,56959
43801,56943
43808,56945
43807,56938
43810,56944
43809,56952
43823,56948
43809,56938
43803,56952
43809,56951
43800,56938
43814,56953
43807,56940
43816,56952
43827,56965
43806,56944
43811,56959
43810,56958
43810,56938
43812,56953
43794,56932
43800,56938
43800,56948
43822,56949
43804,56952
43818,56943
43805,56962
43811,56945
43819,56958
43827,56976
43826,56970
43824,56973
43820,56968
43811,56955
43811,56957
43827,56971
43826,56953
43816,56967
43831,56955
43819,56968
43824,56986
43819,56968
43823,56969
43818,56970
43830,56983
43816,56980
43837,56993
43832,56986
43838,56990
43825,56990
43830,56998
43831,56976
43834,56978
43863,57001
43823,57001
43832,57003
43839,57018
43838,57013
43844,57008
43852,57007
43837,57022
43844,57014
43837,57026
43847,57027
43844,57037
43841,57038
43849,57041
43854,57039
43867,57045
43853,57036
43870,57052
43857,57053
43858,57066
43873,57065
43873,57064
43867,57053
43883,57065
43873,57083
43875,57073
43867,57082
43879,57073
43882,57079
43884,57078
43873,57087
43887,57102
43879,57111
43871,57105
43874,57097
43879,57097
43891,57092
43874,57059
43870,57023
43861,57011
43861,57005
43871,56983
43836,56980
43835,56954
43834,56970
43851,56950
43847,56961
43839,56951
43846,56957
43853,56964
43855,56955
43876,56963
43854,56968
43860,56979
43846,56968
43848,56957
43864,56938
43842,56946
43853,56935
43855,56944
43839,56941
43854,56911
43850,56925
43849,56933
43833,56928
43842,56916
43856,56932
43848,56932
43854,56926
43853,56943
43855,56933
43868,56933
43863,56929
43863,56928
43855,56927
43867,56938
43859,56939
43861,56902
43859,56923
43866,56922
43854,56925
43857,56926
43857,56924
43859,56901
43861,56923
43858,56913
43865,56921
43875,56918
43859,56925
43867,56930
43859,56935
43876,56931
43864,56929
43868,56926
43872,56930
43867,56938
43864,56931
43876,56958
43880,56982
43874,56937
43862,56923
43871,56920
43882,56956
43864,56947
43892,56943
43887,56970
43890,56974
43892,56955
43882,56966
43899,56967
43904,56976
43912,56969
43893,56988
43866,56972
43877,56960
43883,56982
43884,56984
43897,56988
43890,56979
43898,56982
43909,56976
43901,56988
43892,56991
43901,57003
43908,57010
43904,57009
43905,57012
43906,57010
43892,57004
43900,57016
43887,57027
43926,57024
43906,57013
43901,57036
43931,57028
43908,57032
43922,57033
43913,57040
43929,57043
43921,57048
43928,57039
43942,57071
43934,57044
43920,57059
43934,57066
43930,57063
43932,57069
43942,57068
43932,57075
43933,57072
43962,57072
43933,57082
43943,57094
43941,57097
43935,57098
43945,57095
43947,57096
43958,57104
43940,57098
43945,57111
43936,57113
43940,57123
43952,57126
43951,57130
43969,57125
43968,57119
43948,57121
43960,57093
43925,57088
43947,57071
43936,57053
43930,57039
43943,57028
43922,57025
43934,57004
43923,57007
43927,56996
43916,57002
43919,57028
43931,57008
43922,57020
43927,57018
43933,57010
43934,57019
43924,57021
43921,57027
43932,57015
43931,57014
43921,56993
43922,57003
43914,57006
43929,57002
43922,56996
43920,56983
43915,56983
43933,56996
43936,56988
43917,56986
43931,56995
43934,56982
43938,56995
43923,56995
43928,57016
43935,57010
43931,57011
43926,57000
43924,57005
43926,56998
43924,57012
43931,57008
43935,57004
43928,56988
43931,57007
43913,56997
43933,57016
43942,57001
43933,57005
43926,57000
43931,57014
43931,57006
43934,57012
43926,57026
43924,57017
43936,57027
43934,57019
43932,57036
43950,57033
43932,57045
43945,57034
43942,57037
43929,57045
43934,57034
43937,57056
43945,57052
43947,57053
43952,57059
43962,57063
43957,57038
43975,57060
43951,57062
43948,57060
43953,57061
43953,57072
43950,57061
43952,57066
43944,57074
43962,57064
43957,57084
43965,57074
43949,57093
43950,57089
43961,57085
43957,57098
43955,57088
43954,57084
43958,57105
43968,57104
43961,57105
43946,57119
43960,57106
43987,57121
43964,57117
43966,57126
43956,57130
43964,57135
43951,57136
43974,57140
43967,57134
43971,57137
43987,57138
43961,57183
43981,57140
43984,57151
43975,57156
43979,57172
43988,57147
43981,57173
43989,57161
43976,57178
43989,57188
43997,57182
43986,57198
43989,57196
43984,57201
43996,57213
43988,57206
43996,57219
43975,57205
43991,57207
43988,57228
43989,57234
44006,57228
44007,57219
44004,57230
43999,57238
43999,57244
43992,57233
43991,57235
44000,57254
44008,57264
43996,57265
44020,57250
44010,57266
44011,57281
44007,57253
43996,57240
43994,57228
43993,57211
43990,57201
43998,57190
43982,57190
43990,57168
43991,57163
43984,57172
43976,57179
43988,57178
43981,57156
43974,57174
43991,57183
43982,57193
43973,57196
43992,57186
43976,57179
43985,57184
43986,57187
43987,57174
43982,57153
43974,57172
43978,57184
43980,57164
43966,57149
43969,57159
43978,57153
43977,57143
43959,57151
43983,57153
43998,57154
43984,57157
43995,57175
43989,57157
43984,57165
43981,57186
43978,57167
43965,57164
43977,57170
43977,57183
43980,57179
43989,57179
43974,57150
43973,57132
43976,57134
43989,57141
43973,57183
43983,57158
43969,57188
43971,57168
43979,57175
43997,57167
43993,57163
44004,57175
43983,57179
43970,57168
43981,57178
43983,57182
43994,57178
43993,57172
43977,57186
43975,57193
43988,57180
43999,57193
43985,57197
43987,57197
44005,57195
43979,57196
43994,57175
43992,57190
43991,57185
43984,57208
43987,57184
43993,57210
43988,57209
44002,57209
43984,57218
43983,57198
44007,57228
43993,57234
43999,57214
43985,57232
44003,57222
43995,57226
43995,57227
44001,57221
44016,57236
43981,57235
44005,57243
44008,57248
43997,57243
44002,57231
44002,57253
43998,57273
43982,57257
44010,57267
44013,57261
44015,57249
44017,57260
44024,57261
44004,57261
44013,57279
44013,57277
44021,57289
44014,57281
44022,57299
44016,57283
44028,57299
44017,57308
44019,57303
44022,57313
43997,57306
44024,57295
44003,57298
44024,57297
44033,57316
44028,57305
44011,57327
44029,57330
44033,57339
44032,57343
44021,57339
44026,57336
44034,57341
44020,57334
44025,57348
44028,57352
44031,57344
44029,57350
44026,57355
44036,57348
44023,57368
44042,57362
44026,57334
44017,57349
44028,57309
44019,57308
44022,57277
44003,57276
44013,57263
44013,57238
44000,57254
43995,57248
44000,57257
44003,57255
43991,57238
44013,57260
44020,57249
44010,57253
44004,57268
43999,57248
44000,57249
44008,57248
44007,57242
44003,57254
44002,57230
44000,57242
43980,57241
43985,57226
43982,57215
43987,57232
43982,57218
43982,57221
43973,57201
43974,57220
43988,57212
43991,57220
43990,57224
43982,57222
43990,57215
43994,57226
43985,57221
43989,57214
43972,57202
43996,57209
43989,57209
43991,57194
43979,57190
43976,57201
43991,57190
43973,57188
43979,57202
43983,57197
43985,57190
43972,57193
43980,57195
43990,57200
43994,57197
43985,57202
43980,57210
43969,57199
43981,57198
43994,57196
43982,57209
43980,57218
43987,57214
43975,57205
43981,57208
44000,57192
43982,57194
43980,57204
43981,57199
43993,57201
43991,57196
43980,57208
43991,57204
43989,57213
43996,57210
43986,57233
43964,57207
43978,57241
43985,57211
43981,57222
43994,57215
43983,57219
43985,57226
43986,57225
43985,57214
44002,57226
44004,57229
43982,57244
44000,57225
43972,57242
43991,57247
43988,57239
43993,57238
43980,57228
43994,57253
43998,57247
43993,57231
44000,57236
43996,57234
43984,57258
43985,57242
43985,57241
43994,57256
43992,57246
44002,57257
44018,57257
43996,57261
43987,57272
43996,57265
44000,57279
43993,57277
44017,57263
43999,57282
44008,57272
44002,57278
43999,57297
44003,57284
44014,57294
43993,57305
44013,57296
44008,57302
44000,57303
44020,57300
44025,57301
44004,57302
44016,57308
44020,57305
44014,57319
43998,57310
43998,57300
44005,57291
44011,57278
44001,57268
44004,57239
43994,57262
43983,57204
43976,57193
43986,57189
43963,57172
43975,57154
43970,57166
43976,57156
43983,57159
43975,57157
43967,57164
43968,57166
43962,57157
43967,57141
43956,57147
43962,57147
43962,57142
43965,57129
43955,57134
43935,57136
43940,57086
43936,57048
43957,57062
43942,57053
43925,57065
43939,57057
43935,57072
43945,57074
43946,57063
43942,57068
43956,57067
43949,57065
43952,57055
43932,57061
43937,57045
43911,57047
43921,57054
43933,57034
43945,57039
43944,57038
43939,57028
43941,57012
43937,57015
43931,57011
43929,57019
43909,57012
43916,57023
43915,57005
43926,57018
43924,57016
43930,57001
43920,57006
43916,57007
43928,57012
43933,57006
43937,57006
43923,57016
43935,57017
43928,57017
43929,57016
43929,57000
43922,57008
43919,56997
43936,57001
43922,57005
43929,57005
43922,57014
43913,57004
43926,57004
43926,57002
43936,57019
43933,57015
43932,57009
43940,57016
43952,57014
43928,57021
43944,57018
43930,57020
43931,57016
43925,57016
43926,57029
43939,57028
43945,57032
43915,57016
43931,57024
43933,57036
43934,57035
43951,57047
43951,57041
43944,57028
43941,57039
43944,57040
43946,57038
43933,57056
43959,57050
43944,57044
43942,57067
43951,57061
43957,57080
43957,57061
43951,57076
43964,57065
43960,57075
43964,57081
43978,57098
43976,57110
44000,57126
44017,57132
44028,57142
44033,57160
44032,57180
44045,57170
44068,57190
44062,57190
44069,57194
44061,57211
44087,57190
44057,57205
44058,57225
44069,57227
44085,57220
44092,57215
44088,57246
44070,57245
44079,57235
44083,57237
44088,57241
44088,57251
44089,57242
44098,57256
44102,57245
44089,57241
44089,57237
44071,57217
44081,57198
44067,57175
44067,57165
44058,57143
44054,57124
44032,57118
44054,57117
44035,57114
44048,57107
44053,57114
44038,57105
44054,57123
44046,57107
44063,57120
44047,57120
44032,57122
44041,57113
44043,57112
44059,57111
44042,57099
44034,57100
44039,57087
44028,57086
44032,57087
44029,57091
44040,57078
44037,57069
44030,57079
44028,57064
44016,57073
44029,57087
44044,57082
44040,57090
44043,57098
44028,57109
44035,57093
44040,57071
44034,57081
44047,57072
44039,57095
44027,57092
44041,57078
44037,57080
44032,57077
44026,57066
44048,57061
44030,57086
44038,57070
44035,57087
44030,57071
44041,57084
44042,57072
44033,57079
44037,57073
44049,57095
44047,57091
44031,57105
44060,57094
44047,57097
44037,57087
44030,57109
44041,57115
44036,57094
44046,57115
44043,57109
44042,57097
44044,57108
44050,57103
44052,57111
44039,57119
44041,57110
44063,57122
44045,57127
44046,57133
44036,57114
44041,57135
44049,57117
44048,57117
44048,57114
44058,57134
44054,57122
44059,57135
44056,57125
44051,57141
44056,57147
44066,57147
44057,57148
44069,57156
44055,57151
44070,57165
44062,57154
44065,57171
44051,57154
44070,57167
44075,57176
44059,57170
44088,57174
44076,57176
44070,57194
44089,57176
44086,57187
44090,57201
44070,57205
44078,57205
44075,57199
44093,57212
44063,57207
44074,57208
44083,57217
44080,57210
44085,57236
44086,57215
44079,57229
44090,57218
44089,57226
44105,57233
44081,57223
44097,57259
44102,57244
44095,57250
44094,57248
44107,57252
44107,57285
44107,57280
44108,57268
44118,57279
44121,57272
44101,57288
44099,57283
44108,57267
44099,57242
44063,57226
44084,57235
44091,57215
44084,57201
44072,57183
44076,57145
44077,57164
44059,57165
44067,57184
44086,57190
44065,57189
44075,57192
44079,57191
44099,57199
44073,57187
44100,57207
44060,57184
44069,57193
44054,57190
44088,57183
44071,57184
44070,57152
44091,57173
44081,57167
44057,57181
44074,57169
44072,57160
44077,57172
44067,57178
44073,57191
44070,57173
44082,57200
44097,57215
44098,57192
44085,57207
44088,57218
44087,57203
44090,57204
44082,57212
44093,57214
44077,57201
44096,57212
44098,57202
44074,57211
44077,57206
44082,57211
44088,57226
44098,57225
44097,57222
44097,57225
44092,57237
44089,57227
44097,57229
44088,57236
44101,57238
44084,57256
44095,57243
44093,57249
44098,57247
44096,57238
44099,57269
44096,57249
44096,57288
44091,57266
44087,57281
44101,57263
44106,57295
44096,57266
44102,57284
44102,57294
44111,57289
44108,57286
44105,57275
44106,57293
44119,57294
44119,57294
44099,57293
44112,57306
44105,57310
44112,57307
44129,57304
44118,57325
44114,57311
44123,57331
44130,57339
44126,57345
44127,57327
44134,57341
44126,57352
44119,57359
44135,57348
44127,57350
44123,57371
44128,57365
44131,57348
44123,57370
44129,57370
44131,57388
44136,57401
44141,57381
44140,57385
44126,57405
44129,57397
44143,57395
44158,57410
44139,57409
44149,57423
44147,57408
44141,57433
44138,57424
44146,57431
44156,57425
44151,57431
44156,57440
44141,57442
44167,57441
44151,57454
44157,57463
44166,57462
44170,57464
44160,57468
44167,57467
44174,57483
44151,57468
44152,57480
44155,57485
44184,57477
44163,57490
44161,57502
44159,57503
44179,57503
44161,57493
44174,57518
44176,57521
44172,57515
44171,57524
44180,57518
44173,57495
44175,57496
44162,57486
44165,57459
44170,57457
44165,57448
44156,57444
44160,57449
44165,57455
44154,57455
44164,57462
44155,57479
44161,57478
44188,57477
44181,57494
44190,57486
44182,57501
44178,57493
44166,57500
44177,57504
44179,57504
44189,57502
44180,57499
44170,57506
44185,57510
44183,57503
44181,57506
44175,57510
44188,57512
44186,57508
44181,57525
44188,57531
44176,57543
44199,57534
44195,57550
44186,57527
44196,57540
44175,57554
44186,57547
44197,57550
44185,57552
44194,57540
44194,57549
44194,57560
44196,57549
44197,57553
44201,57553
44199,57565
44201,57562
44188,57576
44199,57576
44197,57570
44208,57581
44210,57593
44210,57589
44194,57596
44207,57580
44208,57614
44209,57598
44209,57602
44219,57608
44220,57615
44219,57616
44213,57617
44210,57627
44207,57604
44227,57597
44215,57619
44205,57621
44208,57615
44217,57633
44226,57611
44224,57659
44234,57620
44220,57652
44228,57650
44217,57651
44223,57635
44235,57664
44235,57659
44224,57659
44217,57663
44230,57657
44216,57672
44238,57677
44239,57655
44221,57677
44229,57678
44226,57672
44231,57690
44234,57678
44239,57671
44243,57694
44247,57695
44251,57687
44246,57691
44246,57694
44247,57702
44237,57704
44242,57708
44225,57709
44234,57723
44245,57713
44250,57724
44245,57718
44258,57717
44252,57743
44249,57743
44281,57733
44249,57742
44248,57738
44259,57751
44256,57737
44227,57756
44256,57756
44259,57790
44264,57782
44272,57753
44265,57729
44283,57738
44252,57775
44278,57766
44264,57780
44264,57772
44276,57774
44262,57774
44279,57785
44288,57779
44290,57790
44264,57776
44228,57777
44235,57742
44237,57740
44240,57718
44258,57722
44252,57711
44245,57699
44248,57691
44239,57699
44258,57699
44251,57707
44249,57708
44251,57723
44257,57715
44268,57728
44255,57744
44278,57730
44251,57729
44252,57724
44262,57728
44262,57733
44240,57729
44253,57715
44249,57713
44247,57720
44256,57702
44250,57702
44245,57695
44255,57711
44244,57720
44243,57723
44255,57725
44239,57736
44265,57735
44246,57725
44247,57737
44266,57754
44267,57749
44246,57735
44263,57733
44263,57755
44262,57738
44248,57746
44263,57742
44244,57737
44258,57729
44266,57741
44262,57737
44260,57748
44259,57741
44248,57745
44252,57760
44260,57734
44253,57753
44264,57755
44262,57759
44258,57759
44270,57751
44255,57762
44267,57776
44280,57770
44272,57783
44266,57776
44264,57769
44264,57773
44254,57793
44273,57784
44264,57774
44282,57792
44256,57782
44274,57782
44273,57777
44265,57778
44266,57780
44261,57765
44259,57795
44271,57801
44261,57796
44261,57798
44270,57807
44276,57798
44272,57798
44270,57813
44281,57799
44261,57812
44267,57820
44275,57823
44273,57808
44279,57815
44283,57808
44273,57819
44270,57813
44279,57832
44266,57826
44271,57828
44278,57835
44280,57813
44288,57841
44289,57830
44286,57836
44269,57850
44279,57851
44278,57831
44304,57839
44279,57858
44279,57854
44284,57862
44283,57851
44270,57840
44298,57856
44288,57863
44290,57850
44295,57863
44278,57865
44296,57875
44293,57868
44289,57878
44287,57877
44298,57885
44299,57886
44305,57878
44297,57891
44278,57895
44296,57892
44291,57893
44301,57901
44308,57899
44313,57897
44299,57916
44296,57909
44298,57922
44296,57916
44313,57903
44310,57908
44320,57906
44320,57923
44316,57898
44290,57904
44290,57887
44293,57889
44299,57870
44287,57836
44285,57837
44272,57825
44265,57823
44280,57822
44280,57812
44281,57818
44273,57834
44273,57827
44273,57833
44275,57836
44291,57837
44294,57851
44277,57839
44293,57835
44282,57831
44279,57837
44274,57837
44266,57824
44280,57817
44285,57823
44275,57806
44264,57827
44284,57827
44288,57821
44281,57827
44270,57811
44278,57810
44279,57820
44273,57827
44275,57831
44282,57846
44277,57829
44285,57836
44286,57831
44278,57822
44275,57840
44284,57845
44284,57828
44274,57828
44300,57820
44280,57828
44280,57805
44279,57831
44260,57835
44284,57835
44268,57830
44279,57836
44279,57848
44269,57825
44269,57833
44286,57845
44283,57862
44273,57846
44267,57841
44280,57852
44292,57833
44280,57842
44284,57855
44292,57860
44285,57851
44284,57848
44286,57861
44283,57856
44277,57872
44273,57857
44278,57866
44296,57862
44286,57870
44290,57863
44278,57874
44293,57868
44287,57879
44289,57867
44289,57868
44287,57859
44280,57868
44278,57859
44298,57885
44287,57872
44290,57885
44299,57871
44288,57882
44290,57886
44282,57887
44274,57891
44300,57896
44302,57898
44296,57899
44286,57883
44278,57900
44288,57889
44291,57935
44295,57928
44285,57894
44291,57869
44296,57897
44284,57902
44316,57909
44302,57906
44281,57916
44298,57932
44304,57945
44286,57932
44325,57921
44311,57925
44281,57917
44276,57957
44280,57868
44296,57950
44293,57942
44303,57942
44287,57955
44293,57967
44302,57945
44301,57947
44300,57952
44310,57960
44292,57965
44296,57962
44284,57965
44294,57965
44305,57962
44280,57966
44312,57969
44307,57961
44297,57956
44294,57964
44299,57935
44286,57930
44279,57893
44278,57895
44279,57868
44276,57869
44256,57867
44262,57865
44243,57860
44277,57857
44266,57880
44279,57880
44273,57870
44278,57890
44277,57900
44272,57897
44260,57885
44285,57890
44277,57892
44262,57894
44276,57870
44265,57875
44264,57864
44257,57853
44264,57871
44269,57856
44257,57837
44267,57881
44248,57861
44267,57870
44280,57880
44275,57880
44267,57875
44258,57871
44266,57870
44266,57874
44270,57874
44260,57862
44261,57859
44245,57874
44261,57869
44262,57881
44271,57864
44259,57865
44249,57865
44243,57862
44249,57865
44236,57868
44262,57881
44256,57876
44254,57875
44255,57871
44251,57875
44260,57887
44252,57863
44249,57887
44250,57898
44267,57877
44249,57877
44255,57879
44257,57889
44256,57874
44247,57877
44259,57899
44257,57893
44261,57886
44260,57880
44275,57895
44255,57897
44250,57901
44251,57903
44243,57894
44253,57903
44264,57906
44247,57891
44268,57898
44258,57910
44259,57896
44241,57902
44245,57903
44249,57919
44259,57906
44248,57907
44250,57904
44250,57907
44237,57933
44259,57898
44259,57921
44255,57918
44260,57914
44255,57920
44255,57937
44270,57934
44260,57937
44260,57926
44258,57951
44256,57934
44271,57929
44261,57948
44260,57947
44272,57948
44273,57939
44268,57929
44257,57956
44256,57936
44260,57951
44273,57948
44257,57948
44274,57935
44266,57939
44275,57956
44273,57977
44266,57978
44282,57964
44263,57962
44271,57975
44277,57990
44276,57979
44262,57959
44266,57988
44286,57991
44293,57983
44275,57981
44276,57995
44286,57992
44277,57988
44282,58007
44279,57991
44280,57982
44267,57978
44293,57974
44259,57968
44261,57938
44263,57919
44244,57904
44246,57899
44242,57902
44248,57872
44256,57884
44243,57885
44243,57881
44244,57884
44246,57894
44248,57909
44247,57896
44254,57903
44251,57907
44256,57887
44245,57894
44242,57890
44246,57870
44231,57876
44247,57875
44243,57877
44244,57874
44245,57856
44227,57871
44241,57856
44232,57859
44238,57871
44244,57875
44249,57879
44244,57878
44235,57877
44248,57877
44253,57861
44240,57888
44241,57893
44233,57884
44226,57871
44250,57874
44242,57883
44240,57878
44232,57875
44233,57868
44242,57887
44229,57864
44243,57890
44242,57871
44243,57871
44239,57885
44243,57879
44232,57875
44238,57879
44250,57877
44237,57892
44248,57883
44237,57896
44240,57877
44244,57883
44240,57902
44232,57896
44234,57899
44249,57881
44251,57928
44248,57906
44253,57906
44241,57901
44253,57904
44242,57881
44243,57912
44263,57904
44235,57901
44251,57908
44250,57922
44247,57911
44258,57923
44244,57926
44258,57919
44231,57930
44261,57926
44246,57928
44259,57937
44273,57961
44259,57905
44259,57904
44269,57929
44269,57939
44252,57933
44249,57949
44246,57941
44261,57954
44253,57953
44271,57948
44289,57961
44299,57947
44261,57953
44243,57945
44263,57953
44254,57964
44262,57946
44268,57957
44264,57963
44261,57968
44281,57965
44278,57969
44281,57960
44265,57985
44277,57984
44283,57973
44277,58003
44281,57977
44280,57985
44282,57987
44290,57982
44278,57984
44274,57993
44282,57985
44276,57994
44292,58014
44269,57990
44282,57995
44281,58006
44291,58014
44290,58008
44289,58010
44296,58022
44279,58005
44277,58011
44290,58011
44302,58027
44288,58026
44302,58023
44285,58017
44296,58014
44267,57981
44268,57960
44268,57958
44269,57950
44266,57919
44242,57925
44249,57930
44251,57919
44244,57924
44249,57933
44257,57932
44266,57940
44249,57929
44271,57940
44256,57940
44269,57947
44259,57935
44257,57937
44258,57950
44259,57925
44267,57920
44251,57909
44248,57922
44251,57909
44249,57917
44255,57909
44245,57924
44245,57913
44247,57917
44258,57926
44258,57910
44251,57912
44243,57911
44243,57912
44251,57933
44257,57919
44247,57930
44260,57917
44244,57911
44251,57909
44251,57918
44238,57907
44242,57911
44262,57930
44249,57906
44248,57912
44239,57917
44241,57921
44243,57905
44260,57924
44247,57925
44238,57919
44255,57911
44253,57922
44251,57916
44257,57909
44251,57945
44247,57923
44262,57920
44251,57925
44256,57929
44260,57940
44249,57913
44251,57939
44255,57917
44259,57912
44256,57922
44252,57933
44238,57936
44258,57923
44244,57930
44256,57929
44245,57934
44253,57922
44264,57931
44256,57933
44252,57932
44251,57954
44260,57949
44252,57935
44229,57930
44258,57948
44249,57943
44256,57921
44258,57950
44245,57952
44256,57952
44257,57960
44257,57951
44266,57943
44256,57964
44246,57947
44259,57964
44253,57961
44270,57959
44273,57971
44273,57959
44259,57973
44262,57967
44267,57971
44267,57963
44259,57955
44272,57988
44269,57986
44257,57964
44261,57976
44261,57996
44274,57979
44270,57987
44280,57986
44271,57991
44277,57991
44264,57995
44254,58000
44261,57977
44269,57951
44256,57963
44248,57925
44234,57920
44244,57906
44244,57899
44230,57893
44230,57880
44217,57875
44225,57892
44225,57877
44235,57881
44213,57878
44237,57882
44224,57897
44234,57878
44233,57896
44230,57882
44221,57884
44209,57879
44220,57874
44209,57864
44221,57858
44222,57845
44219,57847
44222,57832
44206,57835
44212,57840
44220,57829
44218,57822
44208,57836
44216,57850
44218,57836
44219,57846
44212,57849
44203,57848
44220,57834
44210,57841
44209,57849
44216,57839
44211,57834
44199,57839
44209,57827
44201,57830
44199,57825
44200,57830
44191,57830
44185,57815
44209,57820
44194,57821
44204,57830
44199,57812
44201,57823
44195,57824
44189,57820
44202,57813
44197,57826
44206,57818
44197,57818
44189,57826
44194,57831
44200,57829
44199,57831
44208,57821
44192,57853
44210,57827
44197,57841
44204,57818
44198,57830
44207,57838
44183,57824
44197,57829
44191,57838
44194,57827
44195,57845
44205,57836
44183,57833
44198,57828
44196,57842
44165,57831
44212,57843
44200,57851
44213,57869
44204,57862
44206,57808
44195,57822
44214,57842
44189,57845
44216,57857
44198,57839
44198,57868
44205,57855
44223,57872
44209,57864
44224,57866
44214,57862
44191,57861
44210,57827
44207,57882
44202,57879
44212,57878
44211,57898
44213,57885
44211,57888
44222,57878
44211,57914
44204,57879
44208,57902
44214,57903
44212,57892
44207,57902
44197,57910
44214,57898
44210,57922
44227,57912
44211,57895
44214,57925
44227,57908
44222,57905
44211,57928
44227,57919
44226,57925
44232,57930
44218,57934
44232,57931
44218,57925
44240,57943
44232,57922
44233,57952
44232,57950
44221,57932
44232,57941
44229,57970
44233,57954
44238,57957
44216,57953
44226,57922
44233,57914
44215,57909
44210,57888
44210,57878
44192,57871
44197,57838
44206,57859
44205,57868
44202,57859
44197,57874
44216,57874
44217,57870
44207,57887
44203,57881
44202,57892
44209,57896
44224,57885
44207,57883
44209,57898
44208,57894
44212,57884
44202,57861
44212,57875
44203,57862
44222,57875
44210,57873
44198,57857
44223,57871
44194,57870
44212,57875
44203,57887
44217,57888
44215,57882
44199,57891
44213,57894
44216,57891
44201,57909
44203,57889
44203,57901
44215,57896
44216,57892
44206,57889
44206,57879
44218,57880
44213,57883
44209,57888
44224,57889
44203,57900
44213,57884
44208,57899
44215,57900
44207,57911
44219,57910
44220,57906
44208,57922
44211,57923
44226,57901
44228,57918
44203,57929
44225,57930
44210,57909
44225,57923
44221,57915
44222,57940
44217,57922
44227,57933
44235,57934
44239,57940
44228,57955
44235,57931
44224,57958
44211,57942
44227,57951
44229,57936
44234,57952
44227,57944
44242,57960
44233,57942
44243,57952
44228,57956
44244,57959
44222,57976
44231,57953
44236,57965
44236,57962
44240,57968
44239,57976
44218,57968
44246,57988
44240,57981
44242,57981
44234,57985
44250,57990
44243,58006
44250,57999
44249,58001
44246,57997
44256,58003
44247,57987
44252,57999
44260,58020
44258,58006
44240,58016
44240,58014
44249,58016
44247,58035
44257,58035
44247,58029
44245,58030
44261,58035
44256,58041
44255,58047
44269,58048
44265,58044
44252,58049
44261,58055
44272,58071
44270,58061
44266,58052
44255,58067
44279,58051
44269,58055
44257,58063
44269,58057
44263,58027
44248,58029
44255,58016
44260,58011
44248,57998
44244,58013
44246,57972
44252,57999
44244,58007
44255,58003
44258,58004
44257,58020
44270,58034
44244,58042
44262,58022
44278,58033
44263,58053
44271,58028
44251,58045
44263,58030
44270,58038
44267,58017
44259,58019
44273,58036
44252,58021
44252,58035
44244,58014
44258,58030
44269,58031
44276,58029
44267,58047
44275,58031
44262,58050
44275,58053
44272,58061
44275,58072
44270,58056
44269,58046
44270,58048
44273,58063
44264,58068
44259,58062
44275,58049
44270,58055
44271,58070
44271,58062
44273,58063
44287,58074
44281,58078
44274,58076
44293,58071
44269,58083
44292,58075
44285,58104
44275,58090
44282,58094
44292,58075
44271,58084
44301,58079
44291,58098
44266,58113
44287,58110
44280,58116
44289,58104
44283,58115
44279,58110
44283,58121
44295,58097
44281,58120
44288,58120
44287,58125
44293,58135
44304,58149
44297,58084
44294,58113
44296,58101
44307,58133
44286,58140
44304,58129
44292,58149
44313,58139
44304,58147
44303,58140
44324,58146
44315,58150
44285,58138
44276,58145
44300,58149
44314,58159
44303,58156
44313,58163
44310,58164
44313,58179
44303,58157
44309,58183
44317,58181
44332,58184
44322,58181
44318,58176
44315,58178
44326,58177
44307,58186
44312,58187
44329,58193
44317,58199
44326,58191
44334,58184
44306,58206
44313,58210
44333,58204
44334,58195
44311,58198
44318,58191
44309,58222
44341,58218
44328,58230
44332,58223
44320,58228
44323,58230
44327,58240
44343,58235
44338,58225
44345,58241
44341,58245
44344,58220
44333,58242
44343,58247
44324,58265
44354,58265
44351,58254
44344,58247
44343,58256
44328,58258
44341,58253
44344,58223
44334,58215
44315,58205
44316,58186
44315,58181
44317,58162
44315,58183
44332,58184
44313,58161
44327,58194
44326,58196
44323,58204
44342,58199
44331,58210
44335,58205
44331,58208
44340,58209
44338,58202
44341,58217
44335,58206
44346,58218
44324,58201
44332,58205
44319,58199
44333,58181
44334,58195
44326,58197
44333,58196
44329,58205
44329,58194
44350,58195
44335,58221
44328,58220
44323,58215
44339,58220
44348,58214
44338,58230
44344,58221
44347,58206
44334,58213
44343,58222
44337,58217
44343,58219
44346,58225
44340,58220
44342,58218
44344,58216
44348,58209
44348,58228
44330,58232
44336,58218
44327,58229
44338,58214
44345,58223
44346,58216
44327,58242
44344,58239
44343,58238
44348,58229
44354,58235
44347,58245
44354,58238
44358,58229
44343,58242
44360,58251
44347,58248
44352,58247
44357,58263
44346,58253
44347,58249
44347,58258
44338,58264
44355,58268
44351,58250
44358,58263
44350,58245
44351,58262
44348,58275
44363,58261
44360,58266
44353,58263
44353,58269
44357,58276
44356,58260
44336,58278
44368,58283
44358,58280
44348,58289
44341,58271
44359,58279
44354,58283
44361,58277
44343,58277
44359,58302
44340,58288
44367,58307
44366,58300
44352,58294
44357,58296
44344,58303
44367,58286
44363,58296
44370,58299
44345,58309
44371,58316
44361,58296
44376,58315
44360,58306
44354,58318
44357,58318
44363,58301
44369,58314
44378,58315
44367,58339
44374,58333
44372,58329
44360,58318
44373,58322
44372,58320
44390,58329
44373,58331
44374,58345
44371,58318
44379,58338
44383,58342
44379,58327
44370,58346
44377,58339
44374,58346
44372,58343
44381,58348
44366,58341
44379,58328
44361,58307
44349,58305
44359,58288
44347,58290
44343,58276
44352,58260
44353,58250
44354,58254
44347,58249
44351,58251
44354,58267
44363,58254
44358,58272
44368,58282
44364,58278
44354,58290
44358,58271
44351,58282
44355,58273
44354,58268
44361,58266
44349,58271
44345,58261
44341,58257
44348,58245
44327,58238
44350,58250
44356,58246
44358,58250
44349,58259
44355,58267
44350,58291
44332,58281
44346,58278
44352,58279
44355,58275
44351,58302
44359,58274
44345,58261
44351,58260
44350,58260
44347,58254
44354,58268
44350,58267
44340,58253
44348,58286
44344,58272
44351,58266
44339,58268
44344,58271
44337,58274
44332,58279
44363,58276
44354,58275
44350,58288
44356,58300
44354,58296
44342,58256
44335,58263
44340,58282
44358,58290
44362,58279
44349,58294
44344,58296
44349,58296
44336,58299
44374,58291
44388,58289
44351,58294
44336,58289
44340,58307
44337,58301
44336,58295
44365,58283
44345,58305
44357,58301
44359,58309
44347,58300
44349,58295
44363,58290
44352,58314
44337,58309
44347,58309
44352,58311
44362,58324
44353,58311
44353,58304
44358,58317
44360,58324
44342,58317
44366,58324
44344,58298
44350,58310
44348,58314
44347,58328
44352,58323
44358,58322
44357,58326
44357,58332
44346,58332
44349,58340
44355,58324
44361,58324
44355,58337
44361,58345
44365,58341
44356,58343
44353,58344
44348,58338
44354,58341
44353,58343
44358,58346
44365,58349
44354,58356
44373,58353
44359,58357
44363,58340
44370,58354
44367,58366
44362,58362
44360,58366
44363,58364
44386,58364
44377,58393
44375,58374
44367,58383
44370,58384
44371,58353
44359,58386
44351,58375
44372,58387
44370,58388
44356,58377
44386,58384
44364,58374
44365,58347
44348,58338
44357,58324
44330,58308
44341,58286
44346,58268
44338,58282
44333,58284
44332,58273
44341,58278
44334,58265
44329,58276
44335,58293
44346,58288
44339,58289
44334,58277
44352,58287
44330,58297
44339,58282
44336,58283
44327,58279
44322,58273
44337,58245
44339,58270
44312,58249
44323,58254
44320,58263
44318,58241
44309,58256
44315,58247
44329,58247
44325,58261
44323,58263
44319,58265
44318,58261
44316,58247
44326,58250
44320,58269
44338,58249
44330,58264
44324,58261
44310,58264
44310,58268
44323,58249
44321,58236
44328,58240
44320,58237
44312,58254
44322,58253
44323,58255
44307,58253
44310,58257
44321,58242
44320,58250
44306,58260
44319,58257
44317,58241
44316,58262
44316,58260
44318,58257
44306,58274
44326,58262
44293,58267
44305,58262
44314,58260
44308,58268
44309,58269
44320,58263
44304,58274
44319,58276
44315,58282
44308,58266
44319,58264
44302,58261
44311,58269
44312,58268
44317,58280
44310,58276
44307,58263
44305,58275
44313,58273
44329,58271
44306,58279
44322,58272
44317,58279
44317,58270
44322,58279
44314,58287
44311,58281
44312,58294
44312,58302
44322,58304
44324,58292
44313,58285
44314,58304
44308,58291
44317,58290
44325,58303
44326,58299
44318,58301
44320,58306
44317,58310
44323,58295
44321,58320
44315,58306
44320,58303
44318,58314
44305,58310
44324,58327
44330,58318
44336,58325
44325,58322
44318,58323
44317,58330
44326,58333
44314,58325
44331,58322
44322,58329
44333,58338
44315,58337
44328,58338
44344,58339
44319,58342
44338,58348
44324,58350
44333,58348
44326,58344
44334,58356
44345,58355
44333,58357
44328,58367
44317,58364
44325,58383
44331,58351
44326,58353
44337,58359
44329,58321
44320,58304
44310,58292
44298,58266
44287,58266
44312,58258
44306,58232
44299,58226
44301,58237
44290,58230
44285,58236
44296,58241
44298,58242
44288,58234
44307,58236
44300,58265
44306,58233
44285,58234
44301,58242
44292,58231
44294,58242
44292,58221
44280,58216
44301,58232
44291,58209
44276,58193
44270,58198
44288,58209
44287,58200
44266,58191
44326,58353
44267,58199
44270,58220
44269,58239
44272,58217
44267,58180
44272,58191
44276,58191
44277,58196
44277,58183
44254,58189
44260,58188
44274,58181
44278,58181
44279,58181
44295,58164
44262,58173
44249,58171
44306,58233
44251,58173
44259,58155
44255,58180
44259,58164
44268,58177
44255,58160
44267,58183
44271,58189
44261,58164
44259,58185
44265,58163
44256,58169
44265,58180
44242,58185
44267,58177
44250,58177
44254,58188
44271,58185
44253,58161
44267,58191
44253,58179
44256,58178
44266,58185
44256,58186
44277,58170
44261,58184
44255,58167
44255,58166
44244,58173
44252,58173
44254,58192
44260,58170
44251,58190
44257,58174
44266,58186
44254,58177
44265,58191
44258,58178
44275,58174
44249,58188
44265,58179
44239,58164
44255,58168
44257,58186
44245,58178
44268,58194
44274,58204
44272,58199
44270,58200
44277,58194
44264,58189
44280,58194
44262,58196
44261,58210
44253,58201
44266,58207
44264,58205
44271,58202
44272,58202
44269,58217
44271,58209
44273,58212
44267,58210
44272,58205
44258,58200
44262,58192
44258,58166
44244,58141
44245,58132
44247,58108
44239,58092
44222,58106
44230,58092
44227,58081
44215,58084
44222,58091
44231,58076
44245,58069
44229,58083
44231,58079
44223,58084
44239,58081
44223,58069
44217,58073
44226,58069
44224,58066
44216,58034
44219,58042
44222,58044
44209,58026
44225,58032
44222,58018
44208,58014
44198,58016
44192,58020
44206,58025
44216,58019
44208,58015
44215,58032
44206,58020
44195,58017
44204,58010
44221,58022
44194,58030
44198,58019
44199,58022
44202,57997
44196,57993
44207,57991
44196,57994
44194,57994
44193,58006
44202,57997
44194,57994
44210,57987
44182,58001
44189,57987
44197,57983
44195,57981
44202,57993
44202,58007
44181,57994
44187,57999
44198,58001
44191,58006
44182,58004
44201,57996
44198,57999
44203,58009
44199,57999
44200,58012
44196,57997
44208,57985
44201,58002
44201,57999
44191,57990
44202,58003
44201,57983
44194,58002
44204,58008
44224,58003
44211,58000
44212,58006
44185,58005
44200,58006
44195,58004
44209,58011
44204,58002
44192,58001
44193,57994
44199,58013
44196,58008
44215,58006
44202,58017
44211,58011
44205,58016
44209,58009
44229,58016
44228,58036
44216,58031
44201,58026
44220,58022
44207,58027
44214,58033
44213,58026
44214,58034
44217,58030
44229,58048
44215,58045
44214,58021
44208,58052
44220,58038
44236,58048
44221,58041
44223,58042
44225,58061
44227,58039
44221,58059
44232,58059
44238,58058
44232,58065
44238,58058
44234,58073
44221,58071
44230,58063
44240,58067
44236,58067
44241,58073
44226,58076
44242,58074
44244,58088
44238,58105
44240,58092
44244,58086
44240,58086
44241,58088
44249,58111
44246,58097
44259,58101
44260,58083
44241,58081
44239,58064
44229,58046
44223,58025
44222,58010
44219,58001
44209,57989
44223,58000
44207,57976
44214,57991
44210,57994
44224,57984
44221,58004
44230,58009
44238,58023
44224,58023
44218,58033
44222,57999
44235,58012
44221,58022
44232,58004
44236,57988
44224,57994
44216,57987
44227,57989
44224,57993
44240,58000
44223,57981
44221,57997
44227,57987
44229,58010
44207,57994
44242,58000
44224,58006
44223,58046
44217,58037
44237,57990
44232,57971
44225,57988
44239,58013
44223,58024
44222,58011
44242,58007
44224,58019
44234,58030
44243,58009
44250,58027
44249,58022
44241,58021
44216,58011
44239,58045
44223,58038
44232,58038
44242,58050
44239,58048
44243,58057
44252,58046
44246,58048
44249,58061
44243,58056
44242,58068
44248,58056
44247,58071
44251,58065
44255,58052
44246,58056
44249,58091
44254,58066
44254,58074
44247,58082
44255,58083
44251,58067
44249,58066
44257,58069
44249,58078
44267,58076
44262,58087
44259,58087
44268,58095
44269,58088
44267,58107
44256,58096
44268,58103
44267,58101
44270,58107
44265,58116
44280,58115
44274,58097
44273,58107
44274,58121
44275,58122
44284,58122
44273,58118
44268,58144
44272,58125
44281,58145
44278,58141
44284,58149
44276,58148
44284,58150
44278,58143
44285,58149
44283,58142
44286,58158
44300,58154
44279,58156
44290,58167
44287,58175
44285,58185
44294,58160
44298,58173
44285,58169
44296,58183
44304,58173
44286,58197
44295,58186
44291,58174
44300,58193
44286,58192
44307,58206
44289,58194
44307,58208
44308,58208
44322,58207
44296,58211
44311,58209
44285,58209
44314,58204
44317,58207
44309,58219
44307,58210
44324,58221
44318,58217
44304,58205
44294,58203
44291,58185
44277,58165
44273,58157
44283,58144
44290,58143
44275,58129
44288,58128
44278,58146
44288,58132
44281,58157
44290,58155
44296,58145
44291,58163
44300,58175
44295,58175
44295,58181
44277,58176
44304,58193
44295,58195
44304,58181
44299,58185
44285,58179
44298,58167
44272,58170
44294,58158
44298,58182
44297,58164
44291,58172
44294,58192
44285,58204
44302,58180
44304,58184
44296,58203
44310,58182
44315,58195
44314,58198
44297,58202
44305,58205
44300,58206
44304,58207
44299,58201
44306,58188
44315,58186
44299,58188
44310,58187
44309,58202
44293,58214
44304,58214
44305,58198
44303,58222
44295,58211
44301,58221
44312,58208
44311,58207
44314,58216
44304,58225
44303,58220
44323,58224
44306,58228
44318,58224
44318,58228
44307,58236
44324,58233
44333,58244
44316,58233
44320,58237
44325,58240
44315,58242
44302,58239
44331,58224
44326,58253
44310,58246
44336,58253
44320,58265
44325,58257
44328,58247
44314,58252
44319,58255
44322,58259
44316,58285
44332,58272
44327,58270
44331,58253
44329,58281
44328,58274
44336,58272
44316,58283
44321,58268
44323,58284
44323,58290
44316,58278
44329,58276
44331,58284
44331,58294
44329,58300
44333,58289
44320,58290
44321,58299
44345,58307
44330,58303
44339,58303
44335,58306
44329,58312
44332,58306
44331,58308
44351,58313
44340,58326
44337,58310
44354,58312
44323,58306
44331,58336
44324,58321
44345,58326
44337,58336
44344,58320
44350,58328
44336,58330
44348,58325
44326,58327
44344,58338
44351,58356
44353,58338
44355,58333
44358,58335
44352,58354
44349,58355
44352,58358
44357,58371
44361,58354
44339,58364
44346,58367
44357,58363
44335,58323
44353,58320
44318,58295
44325,58277
44319,58267
44338,58268
44331,58272
44322,58268
44328,58271
44320,58265
44333,58271
44330,58280
44336,58288
44334,58293
44344,58320
44337,58304
44323,58304
44336,58328
44323,58297
44345,58251
44326,58275
44322,58262
44314,58278
44324,58271
44317,58269
44332,58265
44317,58258
44334,58262
44327,58261
44344,58280
44337,58276
44311,58275
44335,58323
44321,58292
44332,58294
44327,58301
44324,58276
44330,58299
44345,58289
44333,58288
44329,58287
44330,58284
44333,58281
44326,58289
44322,58277
44318,58281
44338,58267
44333,58267
44337,58270
44335,58277
44326,58273
44326,58276
44325,58283
44336,58270
44336,58294
44345,58293
44317,58307
44338,58279
44342,58287
44325,58312
44331,58283
44325,58300
44321,58296
44323,58296
44327,58303
44326,58293
44329,58298
44331,58296
44325,58290
44327,58299
44328,58279
44334,58295
44330,58295
44328,58308
44332,58297
44332,58302
44331,58305
44317,58306
44337,58305
44331,58315
44320,58317
44307,58321
44330,58321
44337,58306
44336,58308
44330,58317
44322,58330
44320,58315
44325,58319
44326,58320
44309,58309
44340,58327
44334,58320
44328,58334
44328,58324
44340,58319
44334,58328
44328,58325
44334,58333
44328,58340
44327,58358
44336,58340
44321,58340
44323,58347
44337,58347
44333,58341
44338,58337
44337,58353
44325,58356
44327,58339
44336,58362
44338,58353
44331,58380
44337,58371
44329,58357
44328,58382
44339,58364
44332,58385
44334,58363
44331,58351
44316,58364
44339,58376
44344,58374
44344,58373
44336,58378
44340,58382
44347,58375
44343,58378
44348,58394
44346,58372
44337,58375
44337,58378
44346,58381
44341,58386
44341,58379
44337,58385
44337,58374
44331,58366
44313,58341
44307,58328
44313,58316
44314,58304
44314,58310
44314,58297
44314,58297
44317,58293
44310,58303
44319,58303
44332,58305
44321,58325
44306,58308
44315,58323
44316,58321
44319,58319
44307,58324
44311,58320
44300,58318
44307,58307
44304,58308
44309,58294
44293,58304
44304,58298
44314,58287
44307,58293
44295,58289
44293,58293
44297,58287
44298,58299
44302,58295
44306,58308
44309,58313
44306,58307
44304,58289
44300,58301
44301,58291
44297,58306
44285,58306
44310,58304
44311,58292
44291,58303
44310,58303
44309,58291
44300,58307
44293,58309
44302,58310
44288,58296
44294,58294
44286,58300
44305,58304
44295,58296
44282,58301
44276,58308
44290,58316
44289,58323
44295,58308
44283,58299
44309,58321
44298,58304
44306,58325
44288,58310
44293,58326
44309,58308
44287,58323
44291,58326
44276,58344
44292,58322
44284,58322
44294,58317
44293,58318
44270,58307
44292,58308
44290,58325
44289,58315
44291,58326
44286,58325
44284,58311
44290,58336
44271,58321
44281,58329
44285,58345
44298,58336
44280,58325
44286,58340
44295,58324
44278,58336
44280,58338
44291,58345
44284,58335
44287,58332
44286,58332
44292,58335
44285,58336
44288,58341
44290,58344
44277,58353
44286,58356
44290,58360
44286,58366
44282,58337
44303,58362
44287,58363
44293,58364
44295,58346
44287,58355
44288,58369
44272,58350
44289,58358
44305,58359
44295,58368
44303,58339
44293,58371
44287,58373
44289,58367
44285,58388
44294,58370
44288,58387
44286,58379
44305,58375
44278,58387
44303,58379
44280,58388
44292,58392
44301,58380
44294,58386
44271,58436
44283,58373
44272,58324
44278,58319
44275,58330
44269,58336
44257,58307
44265,58293
44251,58299
44257,58274
44268,58283
44265,58280
44294,58288
44278,58285
44260,58309
44221,58299
44249,58294
44238,58317
44253,58306
44272,58303
44263,58300
44262,58299
44250,58298
44261,58318
44250,58298
44246,58284
44231,58284
44239,58295
44252,58272
44234,58279
44248,58268
44227,58272
44237,58276
44238,58288
44256,58296
44248,58297
44239,58303
44240,58296
44243,58288
44237,58292
44233,58278
44240,58281
44230,58281
44246,58298
44235,58289
44222,58274
44236,58278
44231,58271
44233,58263
44241,58281
44250,58276
44238,58282
44239,58282
44241,58285
44231,58286
44226,58298
44227,58294
44225,58284
44234,58288
44241,58304
44227,58284
44234,58286
44227,58267
44229,58299
44219,58300
44226,58286
44227,58279
44225,58296
44226,58296
44223,58286
44225,58304
44210,58292
44225,58287
44231,58287
44231,58303
44230,58299
44227,58308
44232,58296
44218,58286
44211,58312
44227,58289
44227,58297
44209,58294
44211,58308
44223,58303
44214,58301
44214,58313
44223,58300
44221,58332
44217,58302
44220,58313
44220,58332
44219,58301
44218,58308
44221,58318
44228,58339
44218,58305
44219,58320
44223,58316
44202,58324
44219,58325
44221,58320
44235,58316
44229,58333
44224,58323
44211,58335
44204,58325
44222,58339
44222,58330
44217,58343
44215,58344
44232,58345
44208,58336
44228,58330
44219,58345
44214,58337
44223,58349
44232,58352
44206,58351
44217,58342
44221,58355
44230,58354
44216,58363
44231,58335
44225,58347
44217,58352
44224,58346
44222,58359
44222,58354
44218,58359
44229,58371
44233,58371
44224,58353
44232,58381
44230,58371
44218,58380
44231,58381
44233,58374
44225,58372
44225,58343
44216,58346
44209,58334
44202,58324
44196,58294
44211,58299
44189,58289
44200,58277
44181,58283
44198,58298
44194,58289
44208,58300
44203,58296
44206,58296
44203,58292
44202,58298
44195,58305
44207,58305
44199,58312
44194,58285
44203,58277
44191,58284
44192,58262
44187,58271
44181,58263
44180,58270
44195,58273
44179,58273
44178,58276
44184,58281
44190,58276
44187,58276
44180,58286
44198,58296
44192,58279
44183,58278
44181,58297
44189,58272
44185,58284
44176,58284
44179,58276
44181,58271
44178,58275
44170,58270
44186,58269
44166,58271
44179,58273
44178,58277
44165,58281
44173,58253
44168,58264
44189,58279
44179,58283
44169,58291
44172,58266
44175,58265
44160,58273
44170,58276
44177,58282
44178,58279
44191,58284
44170,58283
44181,58282
44155,58279
44175,58288
44162,58281
44179,58291
44171,58300
44156,58281
44157,58286
44172,58300
44169,58285
44160,58296
44161,58280
44172,58276
44169,58294
44166,58276
44164,58276
44169,58301
44169,58298
44174,58287
44166,58280
44168,58291
44159,58284
44157,58309
44160,58316
44162,58302
44175,58308
44151,58312
44171,58315
44168,58306
44165,58334
44170,58322
44177,58309
44180,58298
44154,58300
44162,58311
44170,58325
44174,58327
44168,58321
44157,58302
44154,58332
44176,58323
44176,58318
44174,58317
44165,58321
44151,58312
44167,58326
44171,58326
44170,58367
44172,58344
44179,58324
44167,58299
44181,58300
44173,58328
44175,58335
44189,58330
44189,58336
44192,58361
44176,58342
44161,58348
44206,58336
44193,58358
44198,58350
44168,58365
44188,58370
44151,58345
44162,58358
44167,58352
44176,58364
44180,58348
44166,58367
44166,58377
44174,58367
44179,58367
44173,58351
44185,58355
44159,58328
44162,58318
44158,58308
44149,58292
44143,58291
44147,58266
44135,58268
44158,58267
44133,58271
44139,58263
44142,58258
44146,58261
44156,58266
44141,58259
44153,58262
44136,58258
44144,58269
44123,58267
44129,58269
44138,58259
44135,58253
44129,58240
44123,58233
44117,58237
44110,58235
44128,58208
44108,58213
44123,58221
44105,58207
44124,58220
44109,58204
44122,58224
44137,58219
44110,58227
44112,58212
44115,58215
44099,58222
44103,58203
44111,58208
44104,58204
44108,58205
44109,58204
44105,58186
44100,58192
44113,58201
44100,58207
44106,58201
44102,58181
44106,58186
44097,58181
44095,58179
44094,58190
44094,58190
44104,58195
44079,58190
44098,58178
44097,58181
44093,58189
44098,58187
44099,58171
44074,58174
44085,58183
44088,58178
44098,58174
44074,58180
44081,58179
44082,58160
44092,58175
44079,58174
44081,58164
44081,58162
44076,58173
44092,58165
44083,58172
44091,58158
44077,58168
44092,58168
44078,58177
44078,58182
44088,58171
44087,58174
44078,58179
44083,58173
44088,58173
44089,58176
44072,58190
44074,58171
44101,58186
44082,58167
44073,58174
44094,58177
44079,58187
44091,58167
44085,58176
44085,58179
44072,58181
44081,58175
44086,58183
44076,58178
44095,58182
44084,58185
44081,58180
44083,58175
44094,58190
44074,58175
44091,58186
44092,58174
44085,58193
44089,58184
44089,58188
44086,58186
44085,58190
44089,58183
44084,58199
44073,58191
44089,58196
44087,58200
44098,58190
44096,58186
44073,58195
44097,58203
44099,58199
44083,58199
44083,58208
44093,58196
44083,58208
44070,58209
44093,58203
44089,58191
44095,58219
44083,58220
44101,58219
44106,58214
44105,58209
44093,58216
44075,58198
44075,58184
44074,58162
44063,58137
44059,58130
44046,58107
44054,58108
44053,58086
44065,58064
44031,58072
44038,58067
44050,58077
44041,58064
44051,58069
44042,58072
44042,58071
44047,58071
44034,58053
44035,58056
44055,58069
44030,58050
44018,58041
44035,58034
44047,58023
44019,58014
44031,57997
44019,57995
44011,57982
44002,57991
44014,57984
44017,57975
44015,57994
44007,57994
44012,57983
44015,57985
44019,57989
44015,57971
44006,57981
44021,57979
44022,57980
44008,57971
44026,57963
44015,57972
44006,57953
44011,57958
43993,57937
43998,57943
44012,57929
44006,57937
43993,57943
44007,57926
43991,57931
44008,57930
43997,57922
44001,57961
43986,57940
44009,57942
44004,57950
44008,57952
43992,57932
44003,57931
44002,57931
44004,57933
43995,57934
44007,57917
43997,57930
44017,57934
44003,57932
44014,57930
44000,57943
44006,57930
44017,57942
44002,57922
43997,57930
44007,57926
44014,57937
44016,57942
44006,57931
44023,57936
44009,57930
44006,57934
44003,57927
44011,57948
44024,57927
43984,57945
43995,57944
44002,57942
44022,57952
44031,57944
44008,57903
44012,57902
44020,57945
44017,57949
44011,57947
44009,57955
44018,57945
44007,57939
44023,57948
44021,57960
44064,57941
44023,57955
44004,57953
44006,57930
44023,57945
44012,57950
44023,57963
44020,57961
44019,57953
44040,57964
44039,57962
44031,57977
44034,57961
44034,57946
44049,57974
44018,57967
44033,57984
44035,57967
44037,57992
44036,57970
44033,57977
44034,57964
44056,57984
44035,57991
44042,57996
44048,57983
44036,57993
44038,57990
44033,58001
44061,57986
44035,58009
44042,57996
44059,57995
44067,58004
44046,58011
44056,57999
44056,58013
44061,58009
44045,57997
44039,57978
44028,57963
44023,57933
44013,57914
44016,57903
44011,57909
44020,57889
44018,57874
43999,57873
44029,57881
44007,57865
44000,57858
44011,57869
44002,57871
44010,57881
44019,57874
44027,57888
44029,57876
44002,57861
44007,57869
44014,57874
44010,57864
44001,57861
44010,57856
44010,57833
44007,57838
44001,57847
43992,57830
43998,57834
44006,57835
44001,57829
44001,57830
44002,57840
43992,57848
44004,57838
43993,57845
44003,57828
44008,57828
43993,57837
43984,57827
43992,57824
43996,57836
43988,57810
44002,57808
44001,57816
44003,57809
43996,57800
44010,57829
43994,57812
44005,57831
43975,57801
43998,57829
43990,57812
43999,57818
44010,57809
43996,57823
43991,57819
44003,57821
43997,57799
44010,57834
44012,57821
44001,57827
44002,57844
44001,57827
43996,57826
44001,57832
44000,57826
44000,57831
44002,57832
44009,57820
44002,57831
43999,57831
44003,57833
44003,57838
44002,57835
44002,57843
43994,57827
43995,57838
44020,57844
43997,57851
43999,57845
44020,57855
44007,57842
44006,57848
44006,57851
44030,57859
44014,57854
44022,57861
44023,57863
44015,57856
44021,57855
43998,57867
44022,57883
44021,57855
44014,57868
44000,57876
44029,57874
44014,57872
44012,57866
44017,57880
44027,57887
44030,57871
44026,57883
44037,57901
44033,57896
44016,57887
44016,57892
44020,57897
44034,57901
44022,57888
44040,57904
44031,57908
44035,57927
44031,57905
44031,57913
44029,57924
44032,57915
44024,57928
44043,57926
44036,57917
44041,57934
44039,57940
44029,57935
44034,57942
44045,57932
44037,57943
44049,57948
44049,57942
44053,57954
44046,57964
44048,57962
44060,57961
44033,57963
44050,57951
44043,57954
44038,57946
44027,57926
44041,57921
44021,57895
44022,57886
44017,57877
44020,57877
44029,57875
44015,57862
44021,57876
44012,57872
44021,57855
44009,57880
44024,57875
44007,57876
44024,57887
44025,57879
44032,57881
44017,57887
44033,57886
44016,57874
44017,57872
44017,57876
44015,57867
44008,57870
44018,57866
44014,57862
44023,57860
44008,57857
44006,57869
44003,57864
44010,57883
44016,57868
44009,57885
44019,57891
44018,57879
44021,57885
44014,57894
44029,57879
44021,57883
44011,57888
44020,57891
44025,57886
44027,57888
44007,57879
44018,57881
44021,57873
44011,57892
44019,57891
44022,57885
44026,57890
44028,57887
44013,57912
44018,57902
44019,57904
44037,57914
44032,57908
44033,57909
44029,57935
44024,57910
44023,57935
44022,57938
44008,57906
44024,57899
44023,57898
44028,57914
44018,57917
44027,57948
44036,57923
44022,57932
44045,57931
44049,57953
44056,57935
44051,57940
44042,57960
44033,57950
44018,57940
44017,57944
44018,57944
44030,57941
44013,57951
44037,57965
44048,57960
44041,57977
44042,57953
44030,57962
44026,57980
44044,57960
44029,57958
44034,57972
44035,57983
44039,57984
44031,57997
44043,57988
44033,57982
44041,58003
44038,58000
44046,57989
44038,58001
44033,57999
44048,57997
44051,58014
44046,58009
44044,58013
44063,58024
44043,58004
44064,58014
44047,58017
44034,58025
44057,58029
44056,58038
44072,58027
44052,58037
44059,58041
44060,58033
44049,58045
44057,58028
44066,58047
44058,58046
44069,58057
44056,58049
44064,58045
44055,58059
44059,58058
44068,58078
44060,58075
44065,58057
44057,58074
44062,58059
44062,58064
44059,58066
44070,58071
44075,58074
44065,58063
44070,58080
44071,58082
44067,58086
44064,58079
44052,58056
44056,58036
44071,58026
44048,58012
44063,57994
44040,58000
44048,58005
44039,58005
44049,58005
44040,58000
44049,58009
44044,58006
44044,58023
44045,58018
44053,58032
44055,58035
44062,58021
44043,58020
44047,58025
44058,58023
44058,58027
44049,58025
44049,58023
44058,58012
44047,58009
44053,58011
44038,57999
44056,58018
44056,58017
44040,58012
44057,58023
44058,58035
44037,58028
44051,58016
44065,58038
44053,58032
44060,58034
44046,58035
44058,58012
44051,58050
44053,58054
44048,58032
44051,58020
44047,58021
44052,58018
44063,58021
44053,58028
44050,58040
44051,58029
44064,58030
44054,58031
44057,58046
44040,58041
44053,58056
44047,58041
44057,58046
44065,58042
44051,58056
44055,58049
44053,58052
44066,58036
44036,58049
44056,58048
44068,58056
44053,58049
44049,58050
44039,58056
44058,58058
44053,58064
44058,58053
44045,58053
44035,58053
44060,58065
44058,58064
44062,58059
44064,58034
44053,58071
44062,58065
44062,58065
44054,58063
44059,58058
44050,58073
44069,58074
44054,58062
44044,58090
44050,58069
44053,58082
44055,58067
44064,58075
44055,58072
44064,58084
44055,58084
44054,58081
44059,58071
44064,58086
44057,58090
44052,58102
44056,58095
44058,58088
44064,58093
44049,58095
44058,58107
44065,58090
44066,58116
44061,58102
44062,58103
44066,58118
44059,58107
44072,58107
44053,58114
44048,58106
44057,58116
44062,58102
44074,58114
44058,58125
44060,58123
44060,58135
44062,58111
44065,58119
44072,58123
44080,58126
44068,58122
44071,58137
44066,58143
44071,58129
44074,58143
44062,58139
44073,58122
44082,58133
44053,58134
44071,58101
44052,58100
44058,58065
44049,58061
44052,58046
44045,58049
44035,58029
44047,58032
44023,58035
44029,58037
44040,58043
44043,58046
44047,58033
44036,58044
44049,58055
44028,58054
44044,58044
44040,58048
44030,58030
44032,58041
44023,58031
44017,58006
44037,58016
44019,58009
44021,58023
44026,58003
44024,58010
44020,58001
44033,58007
44028,57993
44022,58007
44020,57997
44019,58000
44016,58009
44015,58027
44017,58013
44003,58008
44015,58009
44025,58020
44020,58024
44017,58026
44022,57976
44018,58000
44012,57957
44016,57985
44014,58010
44010,58006
44016,58000
44007,57993
44013,57992
44019,57991
44014,57977
44020,58001
44033,57998
44002,57984
43978,57998
44005,58011
44010,57993
44012,58014
44012,58006
44018,57985
43999,57997
44021,57997
44010,57996
44009,58013
44012,58000
44013,58000
44018,58010
44005,57995
44003,57990
43993,57998
44009,57999
44005,57986
43985,58000
43992,57993
43996,58003
44004,58006
44004,58005
43998,57999
44010,58000
43999,58001
44014,58005
44006,58017
44015,58007
44008,57991
44005,58020
44021,58016
43990,58024
44014,58017
44012,58025
44004,58013
44002,58033
44004,58014
43983,58019
43996,58017
44008,58023
44011,58029
43996,58030
44003,58037
43988,58032
44004,58030
44011,58035
44006,58032
44001,58037
44002,58039
44001,58041
44012,58028
43994,58045
44005,58047
44012,58032
44015,58051
44011,58049
44003,58045
44007,58052
44015,58053
44004,58048
44011,58049
44008,58059
44018,58052
44007,58067
44015,58061
43999,58078
44009,58082
44012,58058
44025,58071
44004,58063
44002,58065
44010,58060
44012,58073
44028,58075
44013,58067
44017,58066
44011,58054
44010,58010
43992,58013
43981,58001
43979,57973
43977,57974
43985,57955
43967,57962
43972,57946
43966,57956
43966,57946
43974,57950
43980,57964
43970,57953
43969,57963
43967,57957
43976,57959
43975,57955
43982,57953
43981,57953
43962,57944
43974,57929
43954,57947
43969,57931
43964,57927
43962,57920
43958,57911
43943,57901
43958,57908
43953,57899
43952,57917
43940,57930
43949,57919
43951,57916
43965,57920
43949,57908
43952,57921
43953,57905
43947,57912
43961,57907
43958,57920
43942,57893
43946,57901
43932,57907
43932,57882
43941,57892
43943,57888
43948,57898
43938,57902
43933,57878
43937,57903
43932,57887
43935,57895
43926,57889
43935,57901
43929,57894
43937,57911
43933,57893
43930,57909
43941,57891
43955,57905
43950,57896
43928,57896
43945,57908
43935,57902
43932,57917
43940,57910
43929,57913
43932,57913
43935,57917
43950,57899
43929,57905
43927,57914
43940,57922
43942,57902
43929,57897
43936,57913
43926,57910
43941,57912
43932,57937
43937,57928
43949,57911
43939,57924
43943,57935
43941,57933
43938,57926
43931,57932
43938,57926
43934,57944
43946,57935
43936,57924
43947,57935
43940,57946
43936,57932
43936,57934
43959,57947
43943,57938
43954,57953
43934,57954
43937,57947
43955,57949
43956,57967
43950,57954
43960,57953
43962,57962
43956,57968
43949,57972
43947,57961
43951,57967
43953,57977
43946,57971
43947,57962
43949,57977
43942,57959
43957,57976
43946,57981
43959,57983
43961,57999
43946,57973
43955,57981
43947,57983
43958,57991
43963,57995
43954,57997
43953,57992
43947,57999
43958,58020
43955,58012
43951,58009
43966,58024
43960,58028
43974,58021
43962,58010
43965,58031
43950,58023
43989,58025
43964,58051
43968,57992
43945,57993
43952,57965
43937,57951
43942,57943
43935,57925
43927,57929
43933,57909
43925,57921
43927,57918
43932,57920
43942,57907
43936,57928
43943,57934
43931,57934
43937,57937
43945,57948
43943,57964
43934,57972
43928,57903
43938,57900
43943,57910
43929,57911
43934,57934
43925,57918
43919,57926
43945,57923
43926,57920
43936,57928
43962,57930
43953,57957
43929,57944
43909,57947
43943,57948
43933,57935
43936,57950
43934,57932
43941,57947
43932,57942
43939,57937
43919,57928
43937,57940
43934,57959
43943,57931
43928,57949
43938,57940
43940,57938
43936,57934
43946,57939
43934,57955
43951,57942
43937,57943
43929,57948
43942,57945
43950,57953
43955,57966
43937,57954
43949,57953
43949,57969
43957,57962
43933,57974
43950,57966
43943,57969
43939,57987
43939,57985
43944,57986
43942,57974
43955,57983
43929,57992
43942,57980
43947,58000
43950,57987
43946,57983
43947,57998
43946,57994
43939,57992
43958,57996
43951,57984
43944,57991
43932,58004
43949,57994
43969,58012
43944,58023
43970,58022
43959,58010
43956,58014
43961,58019
43965,58026
43967,58027
43949,58029
43964,58034
43941,58019
43960,58033
43968,58034
43973,58035
43957,58042
43963,58035
43972,58046
43948,58052
43962,58045
43976,58056
43964,58062
43971,58054
43974,58054
43965,58057
43964,58052
43967,58060
43963,58068
43974,58077
43974,58069
43958,58081
43978,58084
43963,58073
43983,58083
43978,58097
43967,58082
43971,58078
43980,58087
43977,58093
43982,58090
43984,58100
43978,58096
43978,58108
43968,58098
43988,58096
43976,58105
43985,58092
43968,58063
43951,58063
43963,58029
43948,58037
43953,58009
43967,58039
43950,58017
43958,58020
43952,58028
43980,58027
43973,58019
43964,58044
43958,58038
43963,58041
43971,58054
43965,58056
43971,58056
43973,58040
43994,58055
43957,58044
43955,58041
43959,58040
43970,58045
43962,58038
43966,58052
43952,58039
43966,58033
43961,58050
43953,58040
43960,58049
43969,58048
43969,58067
43975,58074
43960,58077
43967,58062
43978,58064
43970,58073
43964,58063
43958,58067
43967,58064
43972,58080
43972,58064
43972,58066
43996,58068
43987,58073
43967,58078
43983,58079
43974,58075
43984,58089
43978,58083
43982,58068
43965,58084
43997,58086
43985,58094
43982,58088
43999,58089
43985,58102
43981,58106
43981,58106
43990,58087
43984,58103
43973,58103
43989,58119
43990,58104
43988,58107
43992,58119
43994,58096
43998,58108
43997,58123
43999,58109
43999,58110
43988,58108
43990,58113
43990,58123
44000,58117
43991,58119
43994,58134
44000,58129
43995,58123
44002,58148
43998,58139
44003,58136
43998,58125
44004,58142
43991,58149
43998,58144
44011,58142
44001,58142
44006,58179
44004,58167
44003,58166
44002,58166
43997,58177
44004,58174
44008,58161
44022,58171
44020,58153
44023,58158
44008,58173
44001,58174
44026,58172
44013,58193
44018,58194
44004,58176
44029,58171
44022,58199
44011,58186
44021,58197
44028,58191
44035,58198
44019,58202
44016,58199
44016,58208
44024,58205
44033,58213
44023,58216
44026,58224
44027,58217
44045,58228
44048,58234
44039,58226
44029,58240
44033,58210
44031,58227
44033,58243
44038,58234
44053,58241
44027,58241
44037,58246
44037,58258
44035,58248
44038,58260
44057,58268
44056,58255
44035,58252
44041,58248
44035,58224
44024,58221
44029,58209
44012,58193
44043,58148
44025,58164
44024,58161
44024,58180
44019,58171
44020,58199
44017,58202
44033,58202
44015,58190
44062,58196
44053,58209
44039,58205
44051,58231
44019,58209
44015,58205
44039,58216
44039,58203
44032,58203
44043,58202
44046,58206
44020,58194
44023,58192
44047,58206
44041,58199
44034,58196
44046,58222
44041,58213
44047,58220
44055,58222
44038,58234
44042,58220
44040,58228
44042,58238
44055,58220
44038,58221
44037,58233
44038,58227
44042,58224
44052,58232
44050,58240
44044,58207
44055,58226
44046,58216
44043,58225
44060,58220
44049,58240
44056,58230
44058,58237
44045,58241
44060,58239
44059,58236
44050,58241
44049,58258
44058,58240
44045,58251
44049,58248
44058,58250
44060,58242
44068,58264
44075,58262
44045,58261
44065,58263
44072,58258
44068,58256
44075,58265
44068,58263
44059,58259
44059,58267
44063,58265
44068,58270
44059,58264
44061,58265
44066,58282
44073,58280
44071,58275
44080,58274
44053,58278
44063,58281
44075,58280
44066,58272
44063,58293
44079,58285
44073,58300
44082,58272
44059,58280
44065,58274
44078,58286
44066,58300
44077,58284
44071,58298
44066,58295
44072,58300
44069,58302
44083,58299
44082,58298
44066,58301
44070,58318
44072,58320
44082,58307
44080,58298
44077,58299
44084,58298
44082,58308
44093,58322
44074,58320
44094,58331
44085,58329
44093,58317
44093,58320
44073,58328
44085,58324
44075,58332
44098,58335
44089,58348
44093,58340
44068,58330
44086,58334
44091,58354
44099,58340
44097,58339
44078,58332
44094,58338
44093,58357
44101,58358
44090,58324
44083,58321
44084,58293
44085,58300
44080,58288
44076,58265
44076,58260
44063,58269
44059,58252
44067,58267
44070,58255
44066,58273
44070,58283
44067,58267
44079,58276
44074,58284
44077,58296
44079,58277
44066,58276
44078,58275
44070,58268
44072,58274
44069,58269
44064,58256
44070,58257
44075,58245
44070,58240
44063,58240
44064,58259
44072,58247
44068,58246
44068,58243
44053,58239
44063,58234
44062,58259
44071,58251
44069,58247
44073,58252
44069,58251
44057,58249
44075,58246
44061,58253
44062,58249
44060,58243
44070,58248
44054,58247
44072,58256
44082,58261
44069,58256
44047,58228
44073,58241
44053,58242
44067,58245
44070,58246
44062,58249
44071,58239
44061,58248
44058,58254
44074,58245
44069,58250
44059,58255
44069,58260
44058,58244
44063,58254
44062,58253
44068,58259
44067,58247
44046,58252
44049,58249
44064,58266
44070,58261
44061,58255
44072,58257
44056,58248
44059,58255
44058,58259
44061,58229
44042,58258
44051,58248
44070,58247
44063,58263
44068,58278
44072,58250
44063,58268
44067,58250
44056,58250
44070,58234
44061,58254
44076,58254
44049,58251
44057,58253
44051,58259
44066,58278
44060,58270
44065,58275
44055,58251
44057,58260
44071,58279
44057,58276
44050,58285
44066,58279
44044,58277
44066,58278
44059,58302
44061,58267
44066,58267
44070,58261
44074,58275
44053,58275
44057,58282
44062,58285
44061,58278
44065,58284
44066,58277
44067,58297
44066,58308
44058,58308
44069,58293
44072,58300
44072,58308
44056,58286
44064,58313
44063,58328
44068,58296
44074,58292
44068,58277
44075,58281
44081,58315
44077,58309
44080,58310
44064,58317
44061,58312
44077,58313
44077,58309
44097,58314
44085,58298
44062,58307
44062,58254
44036,58260
44039,58248
44042,58241
44031,58216
44039,58215
44034,58195
44038,58204
44049,58201
44036,58201
44027,58209
44041,58211
44044,58218
44049,58207
44038,58203
44044,58213
44046,58208
44027,58204
44043,58215
44036,58193
44022,58195
44024,58184
44023,58178
44041,58172
44021,58174
44033,58173
44011,58162
44026,58169
44017,58175
44035,58180
44022,58181
44021,58179
44008,58169
44027,58169
44019,58189
44015,58187
44035,58162
44023,58188
44011,58176
44005,58159
44022,58164
44008,58162
44019,58166
44010,58160
44020,58138
44017,58154
44022,58147
44018,58158
44008,58153
44018,58150
44015,58152
44001,58160
44026,58154
43994,58149
44029,58162
44006,58148
44005,58155
44016,58149
44002,58159
44006,58151
44012,58161
44012,58163
44007,58159
44007,58165
44013,58175
43998,58168
43999,58153
44017,58172
44012,58141
44010,58166
44002,58161
44011,58158
44007,58165
43993,58158
44007,58157
44011,58167
43987,58152
44016,58170
44004,58148
44005,58153
44021,58165
44008,58167
44003,58184
44003,58183
43990,58181
44013,58170
44020,58166
44007,58166
44013,58181
44008,58177
44010,58168
44004,58179
44007,58179
44013,58181
43996,58174
44007,58178
44004,58188
44007,58185
44017,58183
44013,58174
43999,58188
44033,58187
44005,58199
44004,58192
44007,58196
44021,58194
44015,58210
44005,58194
44011,58183
44019,58206
44015,58211
44012,58201
44018,58208
44023,58208
44023,58215
44013,58228
44004,58206
44025,58212
44021,58208
44025,58214
44010,58211
44017,58227
44020,58213
44023,58216
44020,58221
44015,58214
44014,58215
44006,58212
44014,58223
44030,58221
44030,58230
44016,58226
44030,58232
44017,58222
44019,58217
44016,58179
43996,58174
44003,58167
43983,58140
43990,58120
44000,58119
43989,58102
43995,58098
43973,58113
43992,58105
43992,58102
43996,58104
43987,58114
43988,58097
43983,58104
43989,58108
43991,58110
43990,58111
43979,58108
43970,58118
43985,58112
43976,58090
43969,58074
43967,58086
43959,58079
43971,58068
43980,58068
43988,58060
43964,58055
43964,58062
43958,58058
43962,58081
43972,58075
43977,58072
43963,58078
43969,58054
43971,58071
43978,58068
43961,58072
43965,58065
43967,58084
43979,58049
43955,58062
43962,58061
43971,58049
43979,58059
43965,58059
43964,58037
43969,58051
43961,58052
43960,58051
43965,58055
43966,58062
43963,58070
43959,58052
43968,58038
43960,58063
43975,58071
43973,58063
43959,58068
43960,58067
43968,58048
43964,58071
43968,58037
43958,58067
43969,58058
43968,58059
43974,58072
43961,58072
43975,58068
43962,58064
43965,58055
43964,58059
43971,58061
43967,58073
43976,58059
43961,58059
43972,58061
43970,58062
43974,58065
43963,58074
43973,58091
43972,58050
43967,58070
43966,58071
43969,58059
43968,58077
43982,58073
43973,58067
43993,58087
43973,58076
44000,58081
43983,58072
43979,58083
43990,58070
43982,58078
43984,58102
43978,58131
43979,58081
43967,58046
43986,58089
43985,58089
43985,58101
43974,58103
43987,58087
43996,58106
43985,58099
43995,58102
44004,58094
44009,58092
43976,58104
43977,58108
43964,58107
43989,58112
43974,58122
43996,58114
44001,58113
44005,58136
44009,58124
43997,58122
44003,58120
43995,58120
44000,58136
43988,58126
43988,58107
43979,58103
43978,58089
43973,58063
43954,58038
43971,58034
43970,58020
43956,58012
43950,57998
43959,57984
43954,57998
43961,57995
43967,57988
43954,57992
43966,58000
43958,57994
43947,58016
43955,58009
43966,58003
43963,57986
43957,58002
43945,57974
43935,57975
43949,57970
43935,57962
43939,57963
43949,57944
43941,57946
43937,57943
43942,57934
43935,57943
43951,57932
43938,57938
43939,57950
43933,57943
43951,57928
43942,57969
43950,57941
43952,57946
43925,57935
43943,57941
43945,57948
43936,57941
43932,57928
43942,57911
43950,57923
43932,57904
43938,57917
43934,57910
43926,57923
43940,57912
43934,57926
43929,57924
43929,57913
43932,57912
43942,57920
43943,57914
43950,57923
43924,57910
43941,57910
43928,57917
43950,57942
43941,57941
43949,57924
43940,57918
43928,57927
43933,57921
43943,57938
43946,57926
43940,57920
43947,57936
43952,57924
43941,57933
43944,57929
43954,57945
43952,57930
43953,57939
43937,57923
43943,57938
43947,57926
43939,57946
43927,57929
43950,57938
43953,57935
43955,57959
43938,57956
43950,57952
43955,57958
43939,57952
43951,57969
43949,57935
43947,57960
43944,57972
43956,57948
43961,57955
43953,57966
43958,57955
43947,57948
43949,57969
43952,57966
43953,57961
43971,57970
43962,57980
43971,57961
43959,57986
43983,57977
43960,57984
43966,57979
43958,57995
43961,57983
43980,57987
43962,57997
43960,57996
43977,57978
43985,57990
43968,58004
43965,57988
43972,57997
43979,58016
43969,58016
43971,58002
43985,58004
43981,58009
43982,58009
43980,58012
43965,58007
43977,58016
43986,58025
43980,58012
43974,58019
43985,58025
43978,58014
43982,58028
43979,58024
43992,58022
43978,58030
43983,58006
43970,57992
43955,57973
43950,57953
43962,57930
43952,57920
43930,57889
43945,57903
43947,57898
43934,57898
43954,57895
43935,57893
43939,57889
43944,57897
43944,57901
43951,57883
43944,57888
43929,57906
43946,57887
43948,57887
43946,57887
43940,57869
43937,57866
43935,57867
43944,57859
43930,57843
43921,57831
43915,57849
43925,57848
43931,57844
43927,57844
43927,57844
43939,57834
43920,57852
43924,57839
43918,57837
43930,57848
43920,57847
43920,57840
43927,57822
43915,57827
43926,57836
43926,57818
43915,57820
43930,57819
43915,57826
43922,57804
43933,57821
43920,57824
43922,57814
43927,57821
43914,57819
43916,57817
43909,57819
43930,57822
43934,57824
43926,57808
43921,57824
43911,57815
43903,57808
43921,57814
43930,57824
43925,57818
43914,57826
43927,57826
43921,57820
43933,57839
43920,57817
43930,57828
43923,57832
43920,57839
43933,57819
43924,57815
43929,57837
43922,57830
43924,57835
43935,57822
43932,57822
43924,57818
43937,57830
43935,57818
43899,57837
43936,57843
43919,57855
43940,57852
43938,57854
43922,57810
43932,57832
43937,57844
43927,57845
43940,57851
43936,57845
43944,57845
43942,57844
43938,57852
43949,57867
43970,57858
43951,57867
43918,57854
43920,57817
43943,57846
43944,57866
43958,57866
43946,57863
43945,57853
43948,57855
43948,57853
43941,57861
43956,57875
43949,57890
43952,57857
43951,57878
43953,57877
43947,57889
43953,57882
43943,57880
43952,57888
43947,57880
43978,57898
43945,57891
43951,57895
43948,57908
43958,57896
43946,57883
43954,57884
43942,57863
43940,57852
43934,57819
43927,57786
43923,57800
43917,57776
43900,57773
43913,57751
43920,57759
43913,57758
43906,57753
43911,57764
43925,57757
43927,57764
43898,57746
43905,57756
43911,57749
43901,57730
43914,57741
43888,57731
43899,57730
43896,57718
43907,57710
43890,57697
43892,57678
43889,57684
43870,57686
43879,57685
43881,57683
43889,57681
43865,57679
43897,57673
43887,57695
43887,57684
43889,57689
43882,57673
43892,57686
43899,57675
43887,57674
43874,57677
43875,57667
43884,57660
43892,57665
43882,57647
43879,57662
43876,57653
43878,57652
43869,57644
43874,57658
43894,57657
43879,57637
43864,57658
43867,57669
43886,57642
43887,57658
43888,57653
43871,57659
43880,57650
43882,57663
43887,57653
43892,57661
43875,57659
43888,57643
43881,57662
43886,57650
43891,57653
43862,57650
43898,57665
43880,57666
43888,57661
43889,57657
43888,57672
43877,57664
43880,57670
43888,57647
43888,57683
43888,57666
43879,57666
43870,57670
43882,57671
43883,57695
43893,57673
43877,57677
43877,57670
43892,57676
43887,57674
43881,57695
43882,57671
43882,57680
43901,57683
43878,57681
43891,57681
43890,57695
43890,57689
43900,57693
43890,57700
43909,57707
43900,57693
43909,57704
43904,57697
43891,57698
43896,57710
43890,57708
43904,57721
43915,57719
43907,57719
43893,57730
43917,57720
43921,57734
43916,57732
43903,57740
43905,57747
43906,57741
43898,57742
43897,57743
43915,57750
43912,57741
43925,57730
43919,57736
43899,57742
43929,57757
43918,57765
43915,57764
43918,57756
43915,57752
43925,57754
43916,57757
43910,57761
43907,57779
43946,57772
43933,57799
43908,57773
43916,57786
43909,57783
43926,57798
43937,57786
43921,57774
43916,57739
43909,57736
43915,57710
43894,57694
43889,57690
43884,57681
43869,57668
43877,57667
43896,57665
43881,57657
43890,57672
43896,57659
43885,57664
43877,57666
43889,57676
43896,57681
43886,57665
43895,57683
43890,57661
43883,57675
43889,57670
43883,57655
43873,57650
43873,57657
43874,57642
43871,57631
43864,57643
43872,57649
43859,57641
43870,57632
43867,57653
43873,57651
43875,57646
43870,57655
43880,57657
43868,57667
43874,57656
43880,57641
43882,57635
43866,57644
43876,57637
43880,57641
43880,57629
43884,57624
43872,57641
43882,57630
43876,57620
43879,57637
43868,57637
43877,57671
43856,57626
43868,57634
43871,57652
43855,57638
43875,57637
43874,57640
43869,57646
43869,57640
43873,57647
43868,57648
43881,57651
43877,57651
43878,57657
43875,57653
43874,57670
43882,57685
43867,57690
43867,57657
43861,57659
43880,57636
43882,57645
43882,57650
43860,57669
43884,57666
43888,57680
43893,57661
43878,57669
43911,57657
43873,57659
43901,57668
43867,57688
43858,57686
43871,57682
43890,57684
43885,57701
43897,57668
43896,57690
43879,57688
43883,57692
43881,57705
43890,57678
43894,57693
43895,57684
43894,57702
43882,57703
43891,57722
43897,57717
43896,57715
43893,57686
43892,57721
43893,57720
43880,57734
43901,57727
43893,57737
43878,57721
43896,57739
43896,57729
43896,57749
43916,57730
43899,57742
43901,57759
43897,57743
43887,57741
43915,57751
43910,57758
43905,57768
43905,57759
43894,57764
43904,57751
43898,57748
43897,57724
43879,57711
43885,57713
43878,57690
43883,57673
43875,57677
43872,57671
43874,57675
43872,57677
43885,57677
43884,57673
43883,57677
43885,57699
43886,57693
43874,57683
43887,57681
43879,57678
43884,57683
43885,57695
43865,57678
43879,57684
43871,57667
43840,57650
43861,57664
43886,57664
43869,57658
43870,57665
43886,57659
43856,57654
43879,57648
43863,57656
43862,57666
43868,57667
43868,57668
43870,57678
43885,57673
43879,57673
43870,57673
43872,57671
43867,57671
43864,57683
43883,57675
43872,57661
43871,57670
43865,57669
43868,57675
43862,57674
43870,57661
43879,57670
43881,57667
43856,57700
43882,57686
43871,57669
43856,57676
43880,57676
43863,57682
43880,57687
43879,57686
43872,57700
43868,57678
43868,57693
43873,57705
43875,57696
43878,57691
43862,57702
43872,57693
43881,57703
43891,57710
43892,57700
43880,57705
43878,57694
43889,57714
43867,57706
43869,57713
43889,57710
43874,57721
43884,57724
43889,57722
43882,57721
43891,57723
43884,57742
43879,57734
43873,57744
43878,57729
43887,57748
43882,57743
43877,57767
43902,57741
43876,57733
43895,57736
43879,57740
43891,57755
43890,57774
43880,57749
43885,57750
43894,57755
43892,57762
43905,57769
43888,57765
43892,57785
43882,57778
43899,57782
43896,57761
43908,57773
43889,57786
43892,57777
43886,57795
43890,57790
43902,57795
43900,57804
43916,57810
43915,57793
43888,57808
43912,57820
43912,57799
43908,57817
43901,57813
43900,57820
43899,57822
43900,57823
43907,57831
43895,57823
43902,57833
43898,57838
43919,57826
43908,57827
43917,57846
43914,57852
43901,57843
43909,57843
43913,57843
43916,57845
43924,57859
43927,57848
43913,57835
43909,57826
43890,57825
43903,57790
43910,57783
43900,57790
43896,57771
43893,57762
43882,57768
43897,57781
43902,57748
43883,57774
43884,57781
43904,57788
43887,57786
43899,57799
43885,57796
43901,57777
43907,57786
43884,57788
43894,57781
43892,57775
43892,57800
43877,57780
43880,57774
43901,57773
43894,57779
43879,57761
43891,57766
43873,57769
43891,57767
43875,57788
43899,57793
43895,57790
43894,57796
43879,57798
43896,57799
43891,57790
43907,57799
43885,57797
43895,57811
43896,57801
43890,57775
43905,57797
43905,57793
43889,57752
43902,57794
43905,57786
43895,57803
43888,57813
43888,57796
43903,57788
43902,57788
43911,57801
43907,57802
43912,57804
43893,57809
43908,57806
43903,57816
43894,57822
43898,57833
43910,57813
43917,57799
43901,57811
43927,57826
43914,57821
43913,57835
43911,57833
43916,57836
43904,57841
43921,57851
43920,57853
43934,57838
43915,57845
43921,57866
43893,57857
43900,57846
43901,57847
43924,57858
43914,57862
43933,57852
43926,57851
43924,57864
43918,57855
43927,57878
43924,57872
43924,57877
43918,57863
43917,57866
43924,57869
43918,57877
43933,57887
43925,57887
43928,57894
43927,57880
43932,57898
43921,57897
43924,57896
43928,57885
43925,57911
43943,57900
43933,57910
43938,57901
43938,57912
43925,57915
43942,57919
43935,57913
43946,57915
43939,57917
43938,57923
43947,57930
43959,57926
43936,57950
43944,57931
43955,57921
43952,57947
43957,57934
43958,57950
43950,57956
43948,57944
43958,57957
43961,57945
43945,57963
43956,57950
43954,57970
43965,57962
43932,57979
43953,57971
43974,57984
43958,57980
43959,57968
43958,57986
43959,57975
43971,57974
43958,57973
43958,57995
43944,57960
43949,57950
43958,57940
43935,57925
43957,57942
43932,57925
43946,57905
43951,57913
43945,57916
43949,57922
43956,57907
43945,57912
43947,57936
43953,57918
43954,57935
43960,57936
43952,57927
43961,57936
43956,57929
43940,57933
43962,57942
43952,57923
43949,57920
43951,57926
43948,57910
43954,57922
43956,57914
43952,57926
43954,57924
43953,57920
43939,57929
43953,57942
43959,57951
43961,57944
43964,57958
43969,57954
43950,57942
43954,57948
43969,57943
43952,57947
43962,57949
43944,57945
43953,57949
43956,57958
43965,57958
43960,57964
43959,57961
43976,57949
43965,57963
43965,57968
43964,57957
43973,57961
43977,57968
43971,57981
43965,57969
43969,57980
43966,57980
43960,57981
43966,57987
43972,57982
43971,57980
43977,57972
43983,57997
43981,57987
43976,57995
43975,57987
43965,57987
43985,58001
43983,57992
43977,58003
43989,58002
43991,57994
44002,57984
43991,58002
43985,58009
43979,58011
43992,58012
43979,58012
43980,58011
43979,58023
43971,58020
44002,58024
43998,58019
43990,58011
43981,58030
43987,58035
43986,58024
44001,58016
43998,58035
43997,58033
43980,58037
44003,58054
43986,58050
44010,58034
44001,58049
44006,58069
43990,58058
43981,58064
44018,58062
43999,58056
44011,58066
44013,58072
44003,58066
44007,58073
44002,58068
44010,58078
44010,58078
44027,58075
43996,58087
44010,58093
44002,58078
44011,58090
44015,58091
44012,58088
44018,58100
44020,58100
44025,58113
44011,58088
44014,58109
44019,58101
44043,58123
44012,58120
44023,58114
44029,58104
44014,58123
44023,58127
44036,58125
44033,58127
44029,58126
44027,58131
44015,58129
44039,58144
44025,58138
44042,58143
44037,58136
44023,58121
44018,58108
44002,58104
44014,58078
44025,58075
44013,58058
44014,58044
44024,58058
44024,58058
44016,58064
44006,58061
44007,58077
44016,58075
44013,58091
44019,58084
44027,58091
44019,58082
44021,58092
44007,58078
44017,58066
44028,58073
44029,58081
44006,58061
44006,58069
44019,58070
44018,58057
44016,58065
44017,58050
44018,58075
44025,58068
44019,58069
44025,58071
44018,58087
44020,58066
44012,58113
44031,58108
44015,58094
44023,58092
44024,58095
44028,58067
44036,58079
44020,58087
44028,58085
44030,58096
44026,58081
44021,58089
44026,58089
44051,58090
44036,58095
44038,58100
44006,58096
44017,58066
44018,58090
44023,58105
44034,58097
44023,58112
44023,58109
44025,58119
44032,58103
44041,58117
44044,58125
44035,58139
44027,58129
44039,58135
44036,58128
44041,58120
44044,58130
44044,58135
44042,58136
44042,58129
44035,58147
44036,58133
44053,58155
44038,58145
44059,58161
44051,58145
44040,58163
44044,58138
44042,58149
44052,58149
44041,58150
44048,58142
44050,58158
44054,58152
44055,58160
44042,58151
44048,58161
44044,58160
44051,58172
44054,58170
44052,58176
44054,58181
44058,58161
44058,58184
44046,58184
44059,58192
44043,58196
44061,58198
44061,58187
44060,58198
44074,58218
44055,58196
44065,58191
44061,58210
44064,58200
44059,58193
44074,58208
44069,58194
44072,58229
44069,58207
44091,58209
44075,58232
44080,58232
44067,58218
44094,58246
44079,58227
44088,58245
44058,58243
44077,58230
44088,58238
44087,58240
44080,58246
44070,58250
44067,58261
44094,58251
44076,58262
44086,58254
44089,58268
44084,58274
44079,58255
44089,58268
44094,58256
44093,58266
44074,58258
44067,58268
44077,58275
44082,58254
44068,58249
44065,58219
44056,58198
44063,58204
44053,58188
44053,58163
44054,58166
44062,58171
44058,58184
44065,58190
44050,58187
44056,58200
44069,58180
44060,58188
44069,58194
44071,58198
44066,58204
44071,58193
44064,58190
44064,58194
44058,58195
44071,58184
44074,58200
44062,58190
44051,58180
44070,58197
44065,58183
44063,58173
44058,58167
44061,58176
44057,58190
44077,58191
44074,58182
44070,58203
44058,58200
44059,58191
44072,58203
44065,58178
44062,58199
44082,58187
44081,58197
44073,58190
44081,58186
44060,58182
44059,58189
44068,58183
44072,58189
44066,58171
44058,58206
44076,58195
44062,58204
44065,58205
44071,58197
44084,58193
44083,58212
44083,58219
44076,58202
44078,58219
44084,58198
44083,58208
44077,58199
44058,58199
44091,58220
44093,58214
44080,58209
44074,58215
44068,58223
44088,58219
44073,58211
44078,58216
44082,58233
44081,58235
44075,58220
44076,58221
44090,58235
44095,58226
44075,58242
44097,58229
44089,58229
44083,58239
44080,58230
44081,58227
44098,58226
44094,58247
44076,58247
44087,58241
44076,58232
44085,58256
44085,58243
44086,58241
44086,58245
44098,58247
44097,58260
44083,58247
44103,58250
44101,58270
44093,58252
44090,58262
44095,58267
44100,58272
44084,58266
44095,58273
44102,58278
44102,58273
44097,58259
44096,58278
44109,58264
44099,58274
44107,58280
44104,58285
44096,58292
44102,58294
44109,58263
44118,58289
44115,58294
44104,58301
44110,58289
44095,58279
44098,58268
44104,58266
44077,58246
44084,58226
44083,58217
44095,58207
44079,58197
44066,58194
44082,58188
44075,58207
44079,58186
44092,58197
44084,58201
44066,58220
44104,58170
44070,58213
44075,58217
44078,58211
44077,58185
44078,58196
44077,58191
44083,58179
44067,58178
44065,58182
44105,58185
44084,58167
44068,58157
44064,58155
44065,58169
44069,58190
44067,58189
44075,58140
44079,58142
44076,58172
44065,58158
44057,58157
44051,58185
44060,58191
44064,58175
44063,58155
44082,58166
44070,58157
44084,58157
44055,58146
44048,58165
44047,58156
44070,58160
44055,58149
44068,58160
44060,58147
44051,58168
44064,58164
44053,58177
44062,58167
44057,58141
44048,58168
44055,58149
44064,58149
44062,58155
44052,58169
44043,58165
44056,58152
44063,58160
44051,58164
44044,58161
44048,58169
44063,58163
44055,58172
44052,58165
44059,58180
44035,58176
44054,58165
44055,58170
44051,58155
44054,58165
44072,58166
44039,58161
44052,58174
44048,58161
44041,58164
44062,58175
44051,58179
44054,58170
44051,58170
44064,58178
44044,58159
44055,58170
44059,58180
44055,58160
44056,58174
44064,58174
44061,58181
44066,58190
44049,58174
44066,58175
44065,58177
44065,58194
44062,58190
44072,58194
44071,58193
44056,58201
44063,58194
44073,58209
44091,58195
44061,58193
44066,58220
44080,58191
44062,58193
44087,58186
44059,58198
44059,58203
44063,58213
44071,58220
44079,58207
44080,58205
44084,58223
44080,58219
44073,58216
44084,58232
44072,58240
44069,58244
44070,58228
44071,58229
44082,58224
44065,58252
44086,58234
44076,58243
44081,58250
44082,58259
44103,58267
44109,58259
44092,58269
44112,58291
44103,58288
44098,58264
44096,58250
44078,58233
44076,58224
44082,58211
44088,58180
44064,58185
44075,58180
44067,58184
44075,58181
44074,58166
44071,58175
44058,58163
44072,58170
44061,58161
44075,58180
44087,58178
44065,58168
44050,58182
44045,58157
44051,58154
44049,58140
44045,58144
44046,58125
44045,58135
44051,58125
44060,58119
44039,58108
44035,58128
44031,58109
44038,58113
44043,58122
44026,58126
44045,58125
44049,58126
44044,58121
44051,58121
44057,58123
44060,58132
44036,58120
44043,58119
44034,58107
44042,58126
44043,58113
44024,58110
44032,58092
44031,58086
44031,58113
44030,58097
44032,58106
44023,58100
44027,58088
44028,58093
44050,58112
44024,58097
44043,58123
44043,58112
44039,58108
44030,58106
44037,58110
44029,58110
44047,58104
44025,58123
44027,58110
44026,58114
44022,58102
44034,58111
44021,58114
44033,58110
44035,58107
44026,58109
44025,58131
44024,58101
44024,58131
44036,58124
44028,58118
44036,58120
44029,58114
44040,58109
44029,58115
44012,58112
44025,58137
44018,58115
44020,58139
44032,58122
44030,58115
44029,58114
44023,58114
44048,58129
44049,58119
44026,58135
44041,58131
44031,58120
44025,58140
44024,58144
44038,58136
44038,58127
44031,58131
44030,58141
44033,58139
44025,58139
44045,58152
44026,58160
44038,58132
44032,58126
44041,58151
44030,58152
44036,58146
44013,58149
44032,58148
44041,58149
44025,58153
44027,58152
44036,58140
44041,58171
44034,58161
44035,58168
44029,58157
44035,58155
44026,58167
44032,58136
44036,58158
44044,58161
44026,58169
44046,58169
44041,58184
44043,58147
44037,58184
44042,58183
44041,58171
44047,58132
44034,58145
44014,58146
44008,58133
44002,58115
44008,58111
44009,58100
44020,58080
44022,58050
44009,58066
43998,58077
44010,58061
44009,58079
44012,58074
43990,58106
43999,58073
44016,58035
44012,58031
44014,58061
44002,58073
43982,58072
44002,58055
44017,58057
44002,58039
43990,58059
43992,58055
44032,58042
44013,58028
43962,58051
43984,58050
43975,58041
43989,58066
44004,58054
43989,58056
43997,58058
43991,58045
43994,58052
43994,58049
43983,58058
43991,58051
43996,58050
44004,58031
43996,58054
43994,58042
43988,58038
43983,58034
43987,58034
43985,58047
43980,58038
43986,58045
43992,58050
43989,58054
43990,58037
43994,58048
43987,58048
44004,58040
43994,58071
44010,58052
43978,58060
44013,58057
43984,58060
43977,58057
43995,58061
44001,58046
44001,58058
43981,58066
43992,58070
43999,58059
43999,58055
43997,58066
43999,58051
43994,58055
43995,58048
44007,58060
43997,58072
43980,58076
43996,58069
44003,58072
44016,58086
43990,58089
44001,58074
43993,58074
43994,58081
44005,58080
44012,58071
43992,58088
43998,58076
43997,58079
44008,58094
44007,58083
44001,58089
43981,58087
43998,58105
44006,58087
44000,58100
43995,58106
43999,58098
43999,58101
44004,58096
44008,58101
43994,58109
43998,58100
44008,58099
44015,58119
43998,58106
44006,58111
44010,58106
44006,58126
43999,58124
43998,58118
44006,58124
44001,58141
43999,58139
43998,58131
44009,58128
44014,58132
44009,58132
44001,58132
43998,58136
44009,58138
44015,58149
44001,58136
44014,58150
44026,58149
44012,58143
44013,58160
44011,58145
44018,58136
44016,58149
43995,58133
43996,58111
44001,58102
43989,58091
43975,58078
43982,58084
43981,58044
43986,58055
43983,58066
43990,58083
43977,58077
44007,58068
43984,58063
43993,58070
43993,58084
43985,58085
43995,58096
43995,58086
43978,58075
43990,58080
43987,58080
43978,58065
43985,58066
43991,58059
43984,58058
43988,58041
43987,58047
43987,58066
43990,58078
43966,58067
43990,58060
43999,58078
43979,58078
43986,58076
43992,58076
43989,58079
43988,58086
43982,58075
43988,58084
43995,58070
43995,58077
43993,58084
43994,58079
43993,58084
44005,58085
43995,58082
43984,58081
43989,58075
43986,58090
43985,58083
44011,58093
43991,58084
44001,58086
44000,58097
43993,58099
43976,58097
43990,58090
43990,58100
43992,58106
43997,58100
44015,58104
43989,58091
43994,58115
43992,58116
43992,58110
43997,58113
43982,58098
44003,58114
43991,58115
44000,58118
43998,58112
43992,58104
43998,58098
43991,58119
43998,58120
44002,58099
44006,58129
44007,58129
43999,58129
43995,58128
44002,58120
43992,58125
44005,58125
44011,58142
44006,58125
44006,58117
44017,58137
44013,58151
44008,58149
43998,58148
44002,58153
44004,58151
44011,58153
44013,58171
44023,58163
44005,58148
44007,58165
44016,58182
44026,58175
44009,58177
44038,58161
44013,58183
44012,58181
43999,58180
44015,58177
44015,58190
44029,58193
44012,58164
44029,58184
44019,58198
44024,58183
44030,58204
44044,58207
44038,58197
44036,58214
44054,58209
44030,58226
44020,58192
44038,58204
44042,58227
44036,58212
44049,58214
44043,58231
44038,58218
44030,58226
44038,58223
44025,58201
44027,58197
44010,58184
44016,58177
44042,58152
44010,58167
44008,58179
43999,58169
43999,58154
44022,58132
44014,58146
44009,58161
44012,58154
44004,58166
44026,58167
44020,58154
44017,58173
44026,58173
44043,58181
44029,58181
44028,58169
43996,58162
43989,58165
44002,58157
44005,58141
44019,58163
44026,58162
44021,58166
44016,58159
44029,58148
44022,58184
44026,58181
44032,58183
44029,58167
44024,58180
44017,58186
44006,58183
44010,58189
44030,58181
44012,58169
44027,58175
44010,58176
44027,58175
44033,58172
44038,58183
44032,58178
44031,58183
44016,58175
44024,58182
44026,58186
44020,58187
44035,58202
44009,58190
44027,58217
44021,58197
44022,58212
44029,58190
44019,58206
44036,58216
44040,58217
44028,58211
44027,58219
44017,58217
44025,58207
44030,58222
44023,58216
44029,58219
44039,58214
44037,58209
44038,58194
44024,58207
44030,58213
44030,58213
44038,58222
44028,58229
44051,58231
44024,58237
44025,58230
44041,58235
44040,58230
44033,58227
44022,58243
44038,58233
44053,58237
44032,58249
44026,58246
44038,58244
44035,58252
44025,58250
44035,58249
44053,58250
44034,58258
44027,58251
44027,58272
44040,58253
44042,58255
44053,58267
44043,58258
44036,58272
44034,58273
44042,58267
44030,58277
44040,58263
44044,58276
44060,58263
44051,58275
44047,58276
44053,58275
44044,58274
44049,58292
44066,58297
44057,58271
44052,58289
44047,58285
44051,58280
44047,58264
44035,58254
44030,58237
44034,58248
44034,58226
44030,58224
44032,58222
44019,58202
44034,58225
44033,58225
44041,58220
44031,58227
44026,58231
44033,58241
44022,58251
44038,58252
44038,58233
44041,58229
44034,58233
44035,58226
44021,58211
44017,58215
44032,58210
44026,58190
44027,58198
44024,58207
44026,58195
44023,58202
44020,58207
44028,58200
44011,58208
44016,58210
44031,58200
44026,58212
44029,58213
44022,58208
44031,58208
44033,58224
44032,58221
44034,58216
44032,58213
44035,58188
44025,58198
44028,58208
44018,58217
44032,58215
44025,58207
44041,58194
44026,58210
44021,58212
44031,58204
44023,58219
44036,58230
44024,58215
44007,58214
44024,58211
44025,58206
44023,58216
44026,58221
44028,58220
44033,58220
44020,58204
44014,58221
44023,58222
44030,58228
44027,58227
44025,58224
44029,58230
44027,58234
44019,58226
44025,58227
44036,58219
44032,58222
44025,58237
44035,58226
44038,58224
44030,58240
44033,58246
44034,58236
44034,58224
44041,58223
44038,58242
44017,58233
44027,58241
44026,58233
44037,58254
44033,58250
44034,58236
44032,58243
44029,58262
44031,58252
44032,58256
44039,58251
44030,58240
44038,58247
44041,58255
44030,58255
44034,58255
44041,58277
44042,58268
44043,58257
44051,58272
44041,58277
44044,58263
44038,58284
44054,58270
44053,58268
44047,58276
44043,58276
44054,58280
44035,58288
44052,58294
44059,58277
44042,58288
44057,58283
44044,58292
44056,58298
44063,58293
44047,58297
44049,58309
44057,58315
44040,58298
44057,58315
44056,58313
44060,58307
44040,58270
44056,58320
44059,58301
44070,58321
44061,58311
44061,58319
44057,58324
44071,58331
44058,58329
44061,58312
44081,58328
44067,58316
44041,58301
44050,58293
44044,58299
44031,58260
44043,58227
44035,58234
44051,58225
44052,58248
44041,58243
44044,58252
44046,58263
44048,58266
44048,58255
44059,58264
44091,58267
44072,58274
44033,58263
44041,58253
44056,58313
44034,58247
44036,58250
44036,58241
44040,58237
44036,58229
44043,58242
44029,58222
44047,58251
44039,58258
44035,58258
44046,58254
44039,58262
44054,58275
44058,58255
44042,58273
44049,58260
44044,58271
44052,58263
44046,58269
44057,58261
44046,58253
44040,58259
44061,58248
44051,58258
44055,58252
44053,58260
44034,58250
44057,58264
44043,58262
44034,58264
44047,58266
44060,58272
44058,58283
44059,58276
44052,58254
44044,58268
44044,58276
44061,58287
44048,58281
44061,58272
44044,58281
44061,58277
44048,58283
44054,58266
44047,58292
44052,58285
44055,58275
44067,58274
44055,58290
44050,58274
44058,58302
44062,58290
44053,58281
44066,58283
44063,58281
44054,58294
44047,58293
44052,58297
44064,58311
44081,58295
44070,58301
44061,58286
44061,58298
44081,58311
44068,58289
44065,58302
44080,58315
44075,58302
44072,58316
44067,58315
44063,58297
44083,58312
44079,58310
44074,58306
44083,58303
44081,58316
44070,58316
44073,58311
44068,58328
44081,58323
44070,58330
44080,58329
44076,58328
44054,58322
44064,58338
44068,58336
44073,58327
44075,58336
44088,58349
44071,58330
44079,58337
44071,58345
44074,58341
44084,58358
44076,58350
44087,58341
44084,58354
44089,58363
44087,58367
44101,58352
44090,58339
44090,58359
44085,58348
44085,58351
44076,58343
44076,58339
44065,58330
44062,58290
44067,58277
44063,58284
44056,58283
44059,58267
44047,58285
44066,58268
44055,58284
44061,58275
44070,58284
44072,58286
44051,58277
44055,58293
44058,58298
44057,58287
44052,58298
44067,58280
44061,58267
44069,58295
44068,58258
44043,58264
44066,58268
44056,58266
44046,58281
44064,58265
44059,58266
44059,58266
44057,58281
44061,58271
44048,58271
44078,58280
44061,58281
44068,58283
44046,58271
44055,58288
44064,58290
44067,58278
44057,58277
44053,58286
44072,58277
44061,58271
44061,58277
44052,58260
44062,58274
44061,58271
44054,58281
44059,58267
44078,58276
44053,58276
44057,58264
44059,58278
44065,58279
44071,58290
44061,58280
44065,58280
44060,58283
44068,58297
44061,58289
44056,58295
44067,58298
44064,58281
44059,58285
44055,58294
44058,58285
44070,58306
44063,58298
44062,58282
44056,58286
44074,58273
44065,58290
44067,58301
44056,58274
44077,58298
44068,58303
44065,58297
44073,58300
44058,58288
44079,58305
44069,58310
44070,58303
44073,58307
44075,58294
44058,58309
44064,58308
44067,58314
44060,58315
44064,58320
44078,58308
44079,58323
44058,58322
44093,58322
44079,58321
44069,58326
44072,58330
44066,58322
44073,58346
44067,58331
44078,58326
44082,58331
44072,58335
44086,58349
44086,58330
44083,58348
44088,58351
44079,58338
44084,58352
44074,58336
44089,58379
44086,58354
44086,58352
44073,58349
44084,58354
44079,58349
44078,58371
44097,58357
44092,58368
44079,58353
44087,58358
44085,58372
44094,58375
44094,58385
44090,58385
44048,58370
44101,58392
44090,58403
44096,58392
44093,58401
44087,58339
44082,58307
44084,58302
44084,58312
44073,58293
44062,58297
44071,58284
44067,58296
44069,58288
44073,58297
44107,58312
44093,58310
44044,58302
44075,58304
44079,58298
44074,58296
44069,58305
44080,58314
44082,58303
44063,58303
44068,58290
44047,58288
44074,58271
44045,58284
44059,58277
44062,58274
44069,58278
44060,58288
44074,58272
44061,58274
44071,58283
44066,58292
44067,58294
44063,58299
44053,58297
44068,58293
44064,58293
44063,58294
44071,58293
44065,58293
44066,58299
44062,58277
44063,58283
44062,58275
44069,58272
44061,58289
44070,58291
44080,58285
44061,58295
44077,58294
44058,58286
44074,58294
44061,58290
44063,58305
44057,58305
44078,58310
44081,58306
44064,58304
44071,58313
44079,58300
44080,58305
44067,58305
44066,58312
44063,58302
44073,58303
44087,58309
44070,58312
44085,58318
44067,58321
44078,58315
44079,58307
44078,58327
44079,58326
44088,58324
44084,58328
44084,58322
44083,58342
44082,58326
44080,58332
44084,58333
44082,58335
44076,58331
44080,58324
44072,58328
44084,58356
44102,58341
44084,58348
44085,58353
44088,58339
44088,58359
44083,58336
44085,58354
44084,58359
44080,58351
44101,58354
44081,58353
44096,58352
44098,58365
44096,58371
44086,58378
44091,58352
44106,58357
44093,58374
44087,58370
44088,58371
44105,58381
44091,58372
44094,58379
44112,58380
44110,58374
44101,58374
44118,58381
44102,58385
44106,58388
44095,58382
44106,58376
44110,58396
44108,58393
44106,58404
44111,58399
44100,58389
44101,58396
44117,58414
44103,58413
44112,58424
44109,58412
44113,58406
44127,58408
44117,58406
44115,58406
44107,58400
44110,58403
44098,58385
44108,58370
44088,58348
44100,58338
44090,58340
44105,58331
44093,58330
44084,58326
44088,58328
44088,58335
44089,58347
44104,58347
44075,58329
44100,58349
44108,58341
44105,58362
44103,58360
44095,58350
44097,58350
44108,58352
44103,58341
44112,58338
44082,58325
44095,58344
44092,58336
44087,58335
44108,58349
44094,58361
44097,58341
44093,58328
44104,58361
44111,58363
44096,58352
44092,58359
44091,58343
44091,58365
44105,58355
44101,58346
44095,58354
44098,58364
44102,58347
44109,58355
44098,58351
44100,58360
44108,58368
44111,58370
44105,58375
44096,58363
44102,58367
44115,58372
44103,58373
44112,58362
44108,58366
44104,58373
44106,58377
44111,58388
44110,58390
44105,58378
44108,58382
44109,58399
44100,58385
44100,58378
44125,58382
44107,58402
44113,58390
44115,58396
44104,58392
44111,58417
44119,58394
44120,58416
44108,58411
44125,58402
44109,58410
44125,58406
44125,58407
44118,58415
44119,58391
44134,58419
44128,58406
44121,58410
44122,58415
44130,58423
44126,58419
44122,58420
44125,58412
44134,58432
44138,58422
44141,58425
44134,58449
44128,58439
44138,58427
44126,58434
44121,58437
44121,58440
44142,58466
44146,58466
44129,58458
44137,58456
44137,58421
44135,58459
44152,58453
44143,58453
44150,58468
44132,58450
44135,58443
44142,58466
44139,58482
44138,58470
44170,58474
44153,58481
44132,58491
44142,58471
44138,58493
44157,58514
44149,58457
44158,58447
44150,58462
44149,58491
44165,58496
44156,58502
44149,58500
44157,58509
44161,58508
44153,58511
44163,58504
44189,58513
44148,58510
44171,58523
44122,58514
44141,58508
44176,58512
44138,58515
44157,58492
44157,58474
44146,58479
44131,58453
44146,58452
44144,58437
44159,58451
44129,58441
44142,58436
44155,58448
44142,58451
44155,58461
44151,58452
44140,58466
44153,58475
44152,58481
44141,58474
44148,58460
44152,58475
44161,58470
44157,58457
44157,58451
44159,58459
44135,58456
44152,58462
44146,58459
44142,58449
44148,58451
44145,58456
44148,58450
44156,58465
44175,58466
44152,58465
44139,58479
44147,58477
44153,58486
44155,58487
44154,58469
44153,58482
44156,58474
44170,58499
44164,58503
44163,58474
44161,58487
44154,58490
44161,58476
44168,58478
44162,58490
44168,58497
44152,58498
44156,58479
44168,58486
44164,58494
44175,58508
44157,58500
44161,58512
44155,58490
44172,58510
44161,58500
44157,58518
44173,58511
44169,58515
44172,58522
44171,58518
44168,58523
44169,58528
44185,58516
44170,58518
44178,58544
44166,58529
44163,58533
44179,58519
44192,58536
44174,58535
44166,58541
44169,58546
44173,58545
44190,58543
44191,58530
44181,58539
44161,58536
44182,58545
44197,58535
44176,58541
44185,58580
44159,58552
44181,58547
44189,58555
44189,58541
44201,58574
44197,58567
44185,58555
44199,58568
44202,58567
44192,58557
44201,58581
44193,58571
44200,58584
44202,58585
44187,58575
44189,58571
44188,58576
44188,58580
44205,58589
44195,58583
44196,58592
44195,58588
44209,58588
44200,58599
44209,58611
44218,58600
44203,58603
44210,58585
44212,58605
44211,58605
44211,58597
44211,58621
44208,58603
44217,58602
44205,58623
44210,58610
44217,58628
44221,58610
44212,58632
44215,58637
44209,58628
44217,58622
44216,58648
44222,58630
44218,58607
44202,58629
44213,58647
44211,58634
44204,58647
44223,58632
44219,58631
44222,58644
44215,58637
44193,58610
44194,58590
44198,58586
44207,58564
44193,58567
44207,58560
44196,58554
44187,58557
44194,58562
44189,58570
44198,58572
44200,58582
44199,58579
44196,58590
44196,58582
44209,58593
44208,58581
44209,58595
44197,58589
44207,58590
44203,58590
44211,58587
44208,58579
44196,58566
44201,58560
44195,58572
44185,58559
44198,58567
44197,58563
44216,58577
44190,58585
44199,58597
44209,58568
44191,58590
44209,58598
44226,58603
44209,58584
44223,58580
44203,58606
44194,58578
44202,58604
44199,58586
44211,58585
44203,58590
44204,58603
44205,58573
44209,58587
44204,58586
44206,58590
44207,58587
44216,58594
44210,58600
44200,58585
44210,58592
44209,58602
44216,58597
44214,58598
44208,58610
44196,58610
44212,58592
44199,58602
44204,58589
44204,58612
44204,58613
44214,58614
44215,58611
44196,58609
44210,58604
44212,58593
44216,58606
44218,58601
44208,58613
44197,58604
44202,58638
44205,58616
44215,58613
44193,58618
44215,58614
44210,58611
44201,58621
44199,58622
44208,58612
44211,58620
44201,58620
44207,58611
44235,58624
44222,58630
44221,58631
44214,58598
44212,58636
44213,58644
44215,58634
44218,58620
44216,58616
44207,58615
44225,58627
44225,58644
44224,58638
44208,58635
44221,58626
44220,58632
44226,58629
44213,58645
44238,58664
44220,58637
44176,58662
44192,58659
44206,58644
44219,58658
44232,58652
44225,58659
44220,58642
44216,58659
44226,58656
44217,58653
44221,58649
44217,58683
44232,58667
44219,58687
44249,58664
44216,58665
44229,58654
44212,58679
44218,58686
44209,58660
44212,58640
44212,58627
44202,58623
44196,58593
44202,58598
44193,58581
44199,58586
44188,58573
44192,58584
44204,58572
44194,58578
44207,58597
44195,58583
44209,58588
44211,58599
44202,58583
44183,58595
44202,58588
44187,58594
44196,58586
44202,58575
44200,58584
44204,58574
44172,58572
44194,58557
44180,58566
44179,58557
44188,58553
44185,58551
44167,58563
44181,58559
44182,58549
44189,58567
44178,58562
44180,58562
44171,58565
44188,58556
44172,58579
44185,58571
44184,58577
44187,58554
44178,58566
44186,58553
44164,58546
44167,58561
44166,58566
44166,58541
44160,58548
44166,58550
44160,58564
44176,58545
44169,58543
44166,58530
44175,58563
44176,58559
44160,58535
44166,58559
44186,58566
44162,58556
44151,58559
44168,58568
44168,58569
44175,58560
44152,58554
44178,58559
44169,58557
44163,58561
44159,58552
44170,58573
44161,58551
44169,58567
44176,58569
44163,58561
44167,58555
44152,58564
44161,58556
44167,58546
44148,58554
44163,58556
44160,58552
44153,58577
44159,58567
44149,58568
44153,58561
44143,58561
44162,58568
44154,58567
44160,58564
44157,58550
44148,58570
44154,58566
44139,58567
44158,58571
44159,58574
44158,58576
44143,58583
44160,58570
44153,58575
44140,58575
44157,58569
44156,58578
44154,58571
44160,58581
44155,58574
44148,58564
44150,58590
44156,58591
44162,58578
44155,58575
44160,58573
44165,58589
44165,58591
44144,58596
44160,58589
44161,58600
44149,58603
44158,58589
44163,58593
44173,58606
44157,58605
44152,58590
44163,58617
44168,58597
44160,58600
44165,58601
44161,58608
44165,58616
44161,58604
44159,58604
44148,58620
44163,58623
44147,58623
44168,58618
44152,58614
44161,58612
44159,58613
44150,58594
44148,58578
44135,58562
44142,58541
44137,58523
44123,58516
44136,58520
44124,58491
44139,58511
44121,58518
44127,58517
44130,58519
44125,58503
44120,58523
44136,58521
44120,58523
44141,58523
44131,58504
44131,58532
44117,58524
44129,58515
44123,58511
44113,58502
44122,58498
44111,58497
44117,58487
44126,58490
44120,58492
44104,58501
44113,58480
44113,58497
44128,58490
44121,58486
44119,58502
44115,58486
44121,58488
44110,58502
44110,58488
44110,58497
44120,58510
44107,58494
44102,58494
44104,58484
44104,58493
44091,58487
44114,58480
44104,58490
44093,58495
44094,58493
44098,58478
44099,58477
44121,58481
44117,58489
44100,58497
44110,58468
44100,58479
44097,58485
44098,58509
44097,58506
44102,58485
44096,58492
44105,58489
44085,58444
44102,58494
44098,58479
44106,58493
44097,58502
44101,58504
44105,58492
44094,58486
44112,58505
44100,58496
44121,58494
44103,58487
44092,58503
44094,58504
44107,58532
44097,58509
44096,58495
44098,58472
44101,58452
44083,58500
44101,58491
44084,58510
44095,58505
44097,58508
44088,58493
44088,58501
44113,58502
44120,58497
44104,58505
44100,58499
44073,58507
44079,58516
44090,58509
44096,58513
44097,58514
44102,58504
44108,58516
44099,58515
44095,58514
44090,58517
44092,58518
44086,58514
44092,58512
44096,58517
44091,58524
44084,58517
44098,58513
44102,58523
44105,58519
44103,58528
44103,58534
44087,58538
44096,58544
44115,58527
44090,58540
44102,58543
44085,58550
44098,58543
44089,58525
44100,58546
44106,58548
44102,58555
44093,58527
44099,58553
44094,58555
44105,58554
44104,58544
44103,58533
44096,58525
44089,58511
44080,58491
44081,58476
44079,58458
44081,58450
44067,58425
44073,58445
44061,58416
44069,58431
44068,58437
44071,58432
44075,58432
44063,58422
44073,58449
44062,58457
44063,58450
44077,58446
44059,58454
44066,58429
44071,58427
44060,58412
44057,58410
44057,58406
44043,58424
44038,58411
44063,58407
44059,58406
44049,58411
44053,58414
44060,58401
44057,58404
44050,58421
44054,58421
44067,58417
44050,58399
44040,58428
44047,58417
44047,58408
44053,58407
44055,58403
44061,58391
44030,58401
44049,58396
44068,58405
44045,58389
44038,58395
44053,58406
44043,58411
44038,58392
44041,58385
44057,58388
44049,58392
44043,58405
44052,58396
44049,58393
44055,58397
44050,58407
44051,58393
44042,58414
44059,58392
44037,58407
44064,58409
44044,58394
44044,58409
44054,58408
44038,58412
44035,58411
44046,58396
44051,58416
44033,58427
44062,58401
44052,58417
44051,58401
44049,58413
44030,58412
44050,58402
44040,58404
44038,58410
44046,58438
44051,58426
44039,58431
44037,58407
44036,58404
44040,58414
44038,58416
44052,58423
44046,58432
44050,58424
44050,58414
44041,58423
44047,58432
44055,58419
44048,58434
44061,58431
44050,58434
44051,58416
44047,58427
44042,58437
44046,58438
44055,58432
44043,58442
44048,58427
44049,58444
44044,58420
44046,58444
44049,58436
44071,58434
44058,58456
44041,58437
44044,58463
44063,58439
44053,58441
44055,58450
44047,58451
44054,58455
44051,58436
44056,58455
44047,58462
44054,58446
44059,58457
44061,58465
44062,58464
44055,58467
44048,58453
44064,58459
44068,58460
44051,58471
44057,58473
44050,58452
44047,58443
44038,58431
44043,58414
44057,58395
44037,58377
44023,58358
44028,58358
44017,58345
44041,58350
44032,58346
44030,58347
44030,58340
44031,58340
44028,58346
44026,58354
44024,58376
44019,58346
44033,58355
44025,58352
44016,58332
44013,58351
44015,58333
44025,58330
44028,58328
44004,58314
44011,58316
44005,58317
44010,58296
44006,58305
44006,58313
43998,58304
44012,58302
44021,58323
44002,58316
44000,58325
44032,58310
44015,58316
44021,58314
44021,58340
44017,58320
44018,58311
43999,58318
44013,58306
44009,58307
44010,58298
43998,58289
44009,58305
44000,58327
44008,58294
44008,58290
43997,58302
44000,58287
44010,58277
43997,58309
44002,58292
43990,58305
44005,58304
44002,58311
44003,58295
44007,58304
44001,58300
43992,58321
43973,58318
44008,58299
44002,58327
44013,58341
44012,58332
44007,58278
44009,58285
44010,58297
44006,58319
44019,58306
44014,58309
44000,58304
44009,58302
44010,58310
44007,58313
44040,58318
44004,58312
43991,58325
44008,58294
44007,58310
44012,58310
44004,58320
44009,58341
43999,58324
44003,58327
44016,58305
44007,58338
44010,58319
44012,58319
44010,58335
44026,58338
44009,58333
44014,58342
44018,58334
44001,58340
44019,58341
44024,58342
44026,58329
44029,58354
44021,58345
44019,58345
43999,58341
44035,58347
44012,58359
44025,58347
44014,58351
44015,58370
44027,58359
44025,58368
44016,58367
44029,58344
44026,58377
44027,58363
44025,58382
44027,58380
44019,58357
44011,58359
44033,58381
44023,58368
44016,58376
44022,58379
44028,58371
44025,58385
44039,58372
44017,58390
44018,58384
44031,58376
44015,58360
44020,58349
44012,58329
44011,58312
44001,58286
43988,58273
43987,58268
43999,58267
43986,58260
44000,58262
43973,58256
43992,58261
43984,58249
43981,58246
43989,58254
43982,58248
43981,58257
43993,58255
44004,58251
43983,58247
43992,58246
43984,58232
43966,58216
43975,58234
43972,58236
43971,58230
43971,58233
43969,58213
43973,58223
43985,58216
43976,58210
43963,58235
43964,58211
43963,58217
43982,58220
43989,58240
43969,58220
43991,58218
43984,58224
43991,58211
43969,58223
43970,58211
43969,58212
43977,58222
43962,58202
43973,58209
43968,58206
43961,58204
43988,58223
43957,58203
43975,58213
43970,58204
43967,58209
43953,58217
43959,58208
43966,58203
43969,58217
43954,58218
43973,58209
43966,58228
43972,58227
43971,58213
43965,58217
43968,58214
43978,58225
43971,58232
43973,58218
43975,58213
43973,58219
43967,58226
43974,58225
43969,58224
43972,58226
43974,58229
43983,58222
43979,58234
43969,58253
43993,58230
43967,58230
43984,58235
43988,58229
43980,58246
43982,58239
43977,58231
43971,58245
43972,58237
43972,58246
43986,58248
43968,58226
43969,58228
43973,58230
43982,58235
43979,58252
43978,58247
43968,58253
43986,58266
43986,58261
43975,58256
43980,58243
43972,58261
44001,58264
43974,58262
43979,58271
43985,58266
43978,58267
43978,58270
43975,58273
43987,58261
43989,58268
43986,58274
43985,58291
43993,58275
43992,58280
44004,58301
43982,58279
43994,58291
43994,58295
43981,58286
44002,58279
43989,58285
43994,58292
44004,58306
43999,58295
43986,58300
43998,58304
44005,58283
44006,58290
44002,58272
43980,58256
43986,58245
43989,58232
43961,58211
43948,58187
43959,58178
43971,58174
43968,58194
43973,58167
43964,58177
43961,58182
43949,58174
43961,58176
43969,58175
43975,58191
43966,58195
43957,58182
43961,58185
43963,58189
43963,58181
43958,58177
43962,58182
43953,58160
43966,58160
43955,58165
43963,58150
43943,58153
43960,58147
43954,58158
43948,58156
43950,58154
43956,58168
43969,58167
43950,58152
43949,58159
43969,58171
43952,58169
43956,58172
43952,58169
43945,58163
43967,58125
43958,58158
43959,58141
43947,58160
43951,58157
43934,58157
43956,58152
43948,58164
43953,58148
43954,58150
43969,58168
43956,58162
43956,58146
43949,58162
43947,58183
43954,58191
43947,58174
43953,58163
43964,58133
43955,58179
43952,58169
43960,58173
43953,58164
43971,58177
43954,58169
43957,58182
43970,58186
43975,58183
43977,58192
43965,58199
43939,58177
43945,58163
43933,58184
43963,58181
43969,58207
43949,58186
43955,58201
43961,58210
43950,58198
43983,58209
43963,58192
43971,58195
43963,58217
43956,58219
43970,58221
43960,58217
43967,58225
43974,58215
43979,58211
43976,58234
43982,58218
43970,58216
43965,58231
43989,58243
43975,58239
43980,58242
43982,58248
43987,58233
43978,58265
43996,58248
43981,58255
43967,58254
43985,58258
43978,58266
43994,58266
43977,58275
43991,58271
43986,58271
43987,58282
44004,58290
43987,58283
43990,58276
44004,58289
43992,58283
44007,58289
44012,58289
44010,58298
44009,58304
43983,58307
43994,58295
44007,58294
44010,58319
44007,58291
44014,58320
44007,58331
44001,58300
44010,58295
43997,58296
43991,58286
43986,58248
43986,58243
43986,58235
43976,58238
43991,58235
43962,58206
43983,58207
43984,58226
43988,58217
43988,58215
43991,58236
43958,58247
44009,58248
43989,58241
43988,58240
43996,58250
43996,58262
43997,58261
43984,58243
43982,58246
43992,58239
43980,58236
43996,58252
43990,58228
43978,58234
43980,58242
43989,58240
43978,58236
43982,58251
43991,58239
43986,58249
44011,58242
43981,58255
43987,58262
43991,58255
43999,58251
43988,58261
43990,58253
44000,58264
44000,58256
43994,58276
43992,58248
43974,58270
44004,58256
43981,58261
43989,58259
43991,58261
43986,58272
43998,58261
44010,58283
43999,58269
43998,58282
43996,58264
44003,58283
44009,58280
44000,58287
43994,58279
43990,58281
44007,58279
44001,58283
44011,58285
43997,58284
43991,58282
43998,58300
44002,58302
44008,58310
43996,58310
44010,58307
44001,58305
44006,58311
43999,58298
44001,58315
44010,58326
44003,58315
44017,58323
44013,58315
44004,58323
44027,58339
44015,58316
44010,58328
43996,58329
44010,58329
44004,58340
44021,58346
44006,58326
44020,58332
44010,58345
44017,58349
44012,58337
44027,58338
44024,58353
44018,58342
44016,58333
44028,58360
44022,58347
44022,58348
44025,58348
44025,58345
44016,58364
44023,58357
44019,58366
44028,58367
44017,58370
44021,58349
44020,58386
44025,58384
44020,58376
44016,58360
44027,58374
44023,58378
44033,58374
44026,58371
44030,58373
44017,58359
44015,58335
44012,58321
43998,58328
44005,58317
43994,58295
44006,58299
44017,58289
43999,58291
44025,58295
44007,58313
44004,58298
44013,58299
43995,58301
44025,58296
43999,58324
44013,58324
44009,58297
44012,58316
44006,58323
44010,58307
43998,58299
43999,58327
43999,58310
44011,58317
43993,58282
44001,58294
44002,58298
43995,58285
43998,58308
44000,58297
44001,58305
44007,58308
44001,58307
44025,58302
44012,58295
43999,58309
44004,58309
44023,58314
44016,58319
44004,58305
44004,58321
44020,58308
44015,58325
44005,58316
43993,58310
43991,58306
44005,58309
44000,58311
44007,58324
44013,58323
44010,58323
43996,58301
43999,58316
43998,58332
43999,58312
44009,58325
44010,58335
44005,58316
44019,58351
43998,58342
44008,58341
44016,58325
44007,58320
44018,58307
44020,58316
43994,58336
44010,58332
43994,58346
44009,58359
44020,58341
44019,58355
44031,58337
44036,58355
44004,58346
44001,58344
43985,58346
44005,58344
44009,58351
44020,58350
44006,58348
44018,58367
44005,58367
44017,58358
44010,58365
44012,58377
44021,58369
44008,58351
44011,58380
44024,58369
44024,58367
44011,58367
44008,58373
44023,58371
44020,58387
44007,58376
44025,58380
44015,58388
44014,58392
44028,58404
44035,58395
44017,58398
44022,58402
44010,58396
44006,58400
44023,58402
44025,58400
44020,58404
44028,58403
44022,58403
44035,58403
44019,58421
44020,58405
44034,58409
44040,58415
44034,58416
44010,58407
44022,58426
44030,58439
44022,58419
44028,58436
44040,58412
44023,58391
44014,58386
44008,58378
43992,58351
44012,58336
44003,58336
43992,58328
44007,58349
43993,58329
44008,58336
44005,58343
44003,58331
44001,58339
44002,58345
43998,58348
44009,58352
44008,58363
44000,58349
44004,58352
44000,58349
44000,58339
43993,58345
43987,58333
44002,58334
44007,58349
43998,58324
43998,58334
44002,58314
43994,58330
43988,58331
43992,58335
44009,58319
43995,58336
44004,58340
43990,58338
43986,58335
43985,58339
44013,58337
43994,58351
44002,58356
43989,58340
44001,58345
44006,58351
43989,58331
43997,58346
43996,58334
43993,58355
43998,58339
43993,58334
43996,58348
43986,58340
43993,58334
43990,58339
43985,58345
44002,58341
44002,58352
44000,58345
44000,58349
44000,58364
43991,58385
43995,58363
43994,58360
43992,58344
43999,58375
44012,58353
44005,58376
43999,58367
43994,58359
44003,58368
43994,58360
44007,58364
43997,58364
43992,58371
44000,58374
43987,58386
44011,58377
44012,58373
44003,58395
44008,58378
44012,58387
44021,58406
44003,58379
44004,58406
44016,58387
44011,58391
44011,58394
44004,58401
44010,58409
44017,58393
44006,58401
44014,58407
44010,58402
44007,58416
44018,58410
44006,58423
44007,58425
44023,58420
44005,58412
44016,58417
44012,58436
44017,58424
44010,58415
44004,58424
43988,58414
44003,58387
43993,58372
44010,58375
43999,58357
43997,58341
43991,58347
43994,58335
44014,58329
43997,58343
44009,58341
43992,58349
