42521,55450
42515,55446
42518,55456
42527,55462
42511,55467
42522,55450
42513,55449
42508,55460
42510,55443
42519,55469
42524,55445
42517,55447
42522,55445
42523,55447
42527,55439
42528,55438
42524,55452
42530,55435
42514,55437
42511,55441
42508,55448
42524,55454
42525,55453
42516,55450
42519,55460
42520,55444
42534,55464
42528,55453
42528,55461
42536,55452
42522,55442
42525,55463
42526,55464
42534,55454
42532,55456
42532,55462
42528,55459
42529,55466
42513,55449
42533,55466
42528,55468
42523,55460
42537,55475
42530,55463
42518,55472
42522,55464
42549,55482
42529,55479
42542,55489
42550,55482
42540,55467
42529,55470
42535,55478
42534,55475
42529,55501
42548,55486
42531,55489
42532,55490
42552,55496
42531,55498
42535,55504
42548,55509
42534,55490
42535,55513
42543,55498
42557,55529
42535,55503
42536,55500
42547,55502
42543,55516
42543,55498
42544,55522
42537,55509
42547,55533
42543,55521
42544,55539
42580,55514
42560,55543
42558,55528
42547,55531
42561,55533
42556,55555
42546,55563
42546,55577
42537,55530
42548,55538
42557,55526
42553,55526
42564,55548
42548,55567
42576,55549
42548,55555
42556,55550
42562,55543
42575,55542
42545,55520
42546,55476
42498,55463
42493,55461
42506,55435
42528,55425
42521,55458
42527,55444
42526,55431
42523,55433
42523,55443
42510,55449
42527,55448
42521,55452
42524,55451
42521,55451
42523,55447
42536,55455
42517,55443
42521,55433
42509,55434
42530,55430
42528,55432
42520,55429
42511,55415
42509,55444
42519,55415
42517,55417
42532,55419
42537,55430
42510,55426
42521,55417
42519,55439
42528,55437
42525,55442
42527,55448
42511,55433
42536,55448
42520,55443
42541,55440
42510,55439
42516,55439
42529,55441
42526,55430
42514,55415
42516,55445
42517,55418
42527,55450
42520,55428
42520,55434
42536,55445
42527,55436
42540,55439
42526,55448
42531,55445
42525,55455
42520,55462
42528,55467
42530,55462
42535,55456
42515,55459
42538,55462
42546,55458
42530,55466
42533,55476
42539,55473
42536,55469
42536,55466
42545,55492
42538,55481
42550,55486
42542,55486
42533,55474
42552,55487
42527,55494
42539,55484
42535,55489
42531,55501
42543,55498
42549,55502
42547,55497
42546,55503
42551,55501
42545,55517
42553,55508
42548,55524
42557,55514
42550,55518
42548,55532
42556,55519
42549,55515
42564,55528
42553,55539
42557,55536
42562,55520
42553,55531
42558,55535
42573,55555
42559,55547
42584,55547
42573,55573
42565,55555
42565,55563
42571,55566
42566,55560
42570,55567
42570,55574
42572,55563
42557,55580
42584,55566
42566,55574
42572,55587
42577,55589
42582,55587
42589,55588
42582,55578
42576,55595
42582,55588
42582,55599
42594,55593
42587,55607
42580,55597
42584,55618
42587,55595
42592,55625
42592,55623
42574,55630
42578,55625
42580,55626
42588,55614
42570,55593
42572,55569
42562,55556
42569,55543
42569,55546
42559,55525
42555,55520
42572,55525
42558,55519
42570,55527
42561,55535
42572,55530
42563,55557
42570,55543
42571,55550
42571,55560
42568,55564
42569,55549
42566,55570
42572,55548
42570,55547
42569,55553
42559,55554
42568,55549
42556,55538
42570,55530
42577,55530
42569,55541
42564,55537
42576,55552
42577,55561
42573,55564
42563,55571
42585,55567
42565,55559
42567,55567
42578,55588
42579,55571
42577,55557
42584,55577
42581,55574
42569,55564
42579,55566
42580,55563
42578,55581
42578,55575
42574,55556
42579,55560
42583,55562
42593,55586
42576,55572
42579,55560
42575,55571
42579,55576
42582,55584
42598,55577
42587,55608
42587,55603
42583,55612
42591,55590
42574,55598
42595,55607
42598,55594
42592,55596
42585,55609
42597,55605
42600,55599
42586,55611
42594,55615
42596,55621
42594,55603
42585,55619
42583,55625
42577,55631
42578,55640
42573,55620
42599,55623
42596,55632
42596,55629
42596,55633
42578,55624
42571,55640
42593,55639
42601,55649
42598,55644
42591,55641
42592,55642
42602,55632
42585,55650
42599,55651
42610,55669
42606,55663
42599,55667
42605,55660
42612,55652
42604,55659
42610,55672
42614,55661
42606,55678
42598,55668
42607,55669
42605,55657
42606,55664
42602,55676
42595,55651
42603,55643
42590,55638
42586,55612
42584,55600
42576,55594
42584,55603
42560,55583
42575,55604
42578,55604
42585,55621
42566,55622
42585,55573
42586,55572
42590,55622
42578,55607
42581,55599
42579,55615
42583,55607
42579,55612
42562,55599
42579,55610
42604,55604
42597,55587
42572,55589
42557,55584
42585,55583
42552,55594
42573,55596
42587,55602
42577,55597
42577,55610
42568,55599
42584,55609
42573,55606
42596,55615
42588,55613
42578,55589
42572,55588
42579,55618
42571,55603
42569,55617
42579,55604
42584,55594
42567,55597
42562,55604
42579,55616
42600,55609
42564,55608
42580,55601
42592,55613
42579,55619
42592,55610
42574,55610
42579,55609
42575,55607
42566,55626
42588,55619
42564,55640
42591,55620
42585,55632
42590,55625
42596,55639
42579,55644
42585,55637
42580,55633
42591,55630
42586,55646
42582,55640
42596,55655
42601,55646
42572,55642
42590,55646
42578,55648
42591,55643
42586,55657
42600,55651
42588,55638
42593,55658
42592,55656
42594,55661
42599,55660
42594,55655
42590,55671
42599,55669
42603,55662
42603,55670
42589,55671
42598,55667
42596,55678
42587,55688
42600,55675
42602,55680
42603,55684
42593,55669
42594,55681
42584,55687
42601,55686
42585,55696
42598,55687
42607,55707
42582,55690
42587,55702
42605,55711
42587,55694
42606,55704
42586,55714
42598,55701
42586,55720
42596,55718
42602,55711
42589,55720
42606,55738
42603,55726
42600,55711
42606,55723
42598,55719
42601,55729
42600,55727
42607,55753
42617,55732
42614,55732
42600,55733
42612,55739
42601,55747
42603,55734
42622,55763
42611,55749
42618,55751
42616,55744
42609,55747
42614,55744
42608,55763
42624,55742
42596,55730
42608,55722
42588,55711
42584,55680
42589,55667
42581,55668
42591,55651
42585,55648
42571,55644
42560,55650
42581,55656
42573,55639
42589,55651
42576,55659
42575,55658
42583,55665
42585,55666
42581,55661
42590,55660
42587,55641
42590,55654
42580,55658
42578,55638
42574,55640
42568,55647
42574,55643
42562,55623
42561,55611
42583,55628
42578,55638
42576,55630
42569,55620
42592,55641
42563,55639
42574,55631
42571,55637
42584,55645
42583,55646
42560,55656
42570,55627
42568,55643
42586,55633
42574,55636
42561,55638
42576,55648
42574,55610
42559,55619
42567,55621
42559,55614
42560,55623
42573,55620
42568,55636
42562,55637
42560,55629
42565,55637
42564,55628
42567,55631
42568,55641
42576,55637
42569,55641
42568,55651
42561,55640
42572,55641
42573,55639
42577,55636
42575,55653
42561,55663
42576,55664
42572,55651
42576,55654
42568,55650
42567,55659
42571,55665
42576,55648
42597,55650
42579,55654
42571,55649
42564,55663
42574,55666
42567,55664
42565,55668
42584,55648
42575,55664
42578,55664
42577,55659
42568,55675
42571,55672
42565,55673
42570,55671
42586,55666
42578,55679
42585,55687
42577,55679
42574,55668
42597,55659
42575,55687
42578,55681
42583,55682
42596,55690
42589,55687
42596,55678
42576,55696
42586,55697
42565,55678
42580,55697
42562,55694
42584,55703
42564,55682
42593,55678
42591,55690
42582,55705
42589,55691
42591,55705
42580,55724
42585,55706
42582,55688
42595,55706
42590,55708
42583,55696
42587,55718
42579,55724
42579,55719
42586,55717
42601,55711
42581,55718
42599,55710
42590,55720
42594,55722
42587,55718
42581,55706
42580,55683
42569,55683
42561,55657
42543,55609
42526,55571
42550,55570
42556,55562
42539,55577
42546,55575
42534,55586
42536,55590
42544,55589
42550,55605
42541,55594
42569,55581
42565,55579
42533,55605
42542,55595
42595,55706
42537,55584
42518,55572
42533,55544
42529,55555
42535,55551
42536,55540
42516,55546
42519,55547
42527,55546
42516,55548
42507,55545
42538,55537
42535,55540
42530,55536
42524,55536
42547,55558
42529,55535
42532,55537
42530,55541
42517,55541
42532,55536
42512,55546
42518,55526
42515,55521
42528,55504
42510,55517
42511,55522
42520,55519
42530,55520
42516,55516
42521,55502
42514,55517
42524,55521
42514,55514
42525,55498
42513,55522
42514,55512
42522,55504
42525,55517
42528,55512
42511,55496
42518,55498
42522,55505
42510,55512
42513,55514
42512,55517
42531,55501
42520,55522
42514,55515
42521,55518
42509,55524
42524,55523
42515,55515
42511,55520
42515,55522
42508,55514
42527,55518
42517,55514
42511,55522
42512,55507
42523,55511
42520,55512
42519,55528
42525,55517
42513,55521
42507,55537
42524,55514
42529,55515
42525,55522
42516,55521
42532,55524
42506,55524
42511,55520
42524,55523
42519,55540
42527,55518
42530,55520
42522,55536
42520,55534
42517,55531
42514,55556
42517,55536
42525,55540
42529,55544
42546,55559
42528,55539
42525,55537
42532,55558
42540,55549
42536,55557
42523,55542
42516,55549
42514,55549
42540,55546
42534,55577
42529,55563
42528,55564
42522,55567
42543,55566
42545,55558
42534,55566
42541,55558
42521,55576
42537,55578
42541,55570
42534,55587
42552,55590
42533,55591
42547,55585
42539,55563
42522,55549
42525,55531
42509,55501
42507,55474
42497,55458
42490,55445
42487,55434
42480,55440
42483,55411
42484,55409
42501,55418
42488,55412
42491,55419
42496,55421
42497,55404
42499,55424
42505,55410
42497,55408
42485,55411
42479,55401
42481,55407
42477,55385
42477,55390
42479,55369
42474,55361
42468,55365
42490,55355
42472,55353
42461,55360
42483,55327
42472,55350
42488,55347
42477,55348
42468,55343
42479,55352
42486,55345
42480,55344
42491,55336
42476,55343
42473,55331
42465,55325
42481,55324
42480,55313
42459,55320
42467,55327
42466,55312
42483,55329
42472,55307
42478,55310
42466,55321
42471,55304
42476,55319
42468,55315
42470,55318
42484,55313
42464,55309
42480,55307
42489,55307
42477,55317
42487,55307
42478,55310
42468,55319
42487,55305
42460,55309
42474,55313
42488,55317
42488,55299
42486,55316
42496,55314
42484,55316
42479,55308
42473,55323
42485,55314
42473,55316
42471,55314
42496,55302
42476,55329
42487,55312
42482,55317
42477,55316
42484,55337
42470,55312
42482,55328
42485,55316
42483,55317
42484,55321
42488,55324
42499,55336
42488,55322
42480,55314
42497,55329
42495,55338
42482,55326
42485,55341
42493,55319
42481,55347
42491,55332
42492,55333
42493,55328
42502,55334
42505,55333
42491,55334
42499,55338
42503,55358
42493,55334
42493,55324
42490,55354
42489,55345
42499,55360
42510,55370
42504,55362
42502,55361
42521,55366
42514,55349
42505,55352
42511,55365
42513,55360
42516,55364
42512,55363
42500,55365
42503,55361
42499,55372
42516,55375
42530,55372
42506,55366
42503,55392
42514,55372
42520,55408
42498,55396
42486,55303
42499,55277
42493,55265
42493,55267
42468,55240
42453,55239
42459,55217
42461,55223
42462,55190
42445,55196
42487,55195
42490,55187
42460,55211
42437,55207
42468,55199
42445,55212
42460,55199
42474,55203
42456,55188
42456,55198
42458,55175
42466,55190
42452,55171
42460,55167
42443,55141
42461,55154
42456,55149
42450,55153
42468,55150
42447,55140
42460,55139
42446,55141
42455,55131
42449,55141
42466,55135
42445,55142
42453,55136
42471,55131
42448,55150
42459,55138
42440,55138
42447,55123
42440,55133
42454,55124
42449,55113
42450,55109
42450,55098
42443,55109
42464,55102
42459,55090
42450,55106
42455,55100
42446,55115
42436,55099
42461,55115
42459,55120
42459,55106
42442,55110
42445,55127
42471,55105
42458,55119
42463,55108
42451,55108
42465,55118
42459,55128
42470,55104
42466,55118
42449,55123
42459,55102
42457,55135
42459,55107
42442,55120
42475,55129
42464,55110
42470,55123
42481,55119
42460,55115
42469,55109
42465,55132
42479,55113
42467,55117
42466,55136
42475,55138
42476,55136
42470,55143
42474,55126
42463,55128
42473,55130
42469,55137
42472,55136
42479,55136
42469,55141
42470,55147
42457,55171
42476,55134
42492,55158
42484,55149
42488,55156
42478,55162
42485,55147
42482,55177
42478,55147
42476,55170
42477,55167
42495,55170
42481,55188
42501,55150
42493,55159
42497,55196
42493,55181
42481,55177
42481,55188
42502,55190
42487,55194
42500,55175
42489,55182
42503,55199
42494,55198
42496,55205
42503,55193
42498,55200
42511,55192
42494,55181
42470,55170
42469,55137
42469,55108
42459,55095
42463,55069
42456,55046
42449,55037
42446,55043
42440,55035
42439,55032
42443,55029
42440,55012
42443,55011
42442,55040
42454,55013
42444,55028
42448,55042
42444,55028
42454,55012
42437,55002
42421,54986
42437,55001
42449,54977
42430,54983
42420,54983
42431,54969
42419,54978
42411,54962
42417,54949
42427,54952
42424,54942
42436,54957
42443,54964
42443,54971
42432,54968
42416,54962
42429,54959
42425,54981
42428,54957
42432,54956
42426,54943
42411,54961
42439,54950
42421,54954
42409,54930
42420,54942
42426,54933
42435,54940
42424,54939
42406,54940
42421,54930
42427,54951
42431,54949
42409,54942
42431,54941
42423,54952
42420,54941
42426,54939
42429,54947
42414,54945
42437,54952
42431,54950
42423,54936
42431,54954
42438,54952
42439,54960
42427,54946
42433,54982
42429,54956
42434,54950
42421,54960
42445,54963
42427,54967
42438,54983
42442,54970
42434,54968
42449,54978
42443,54993
42449,54951
42439,54976
42450,54995
42439,54982
42422,54984
42459,54975
42445,54993
42435,54986
42431,54983
42454,54993
42452,54991
42449,55012
42447,54977
42445,55011
42463,55015
42447,55002
42455,55009
42454,55027
42459,55017
42453,55030
42461,55022
42450,55032
42442,55045
42457,55026
42462,55025
42459,55037
42461,55038
42459,55061
42462,55050
42456,55041
42462,55056
42458,55051
42477,55064
42487,55063
42459,55057
42475,55069
42464,55065
42465,55071
42460,55078
42464,55062
42474,55080
42465,55084
42467,55077
42484,55100
42492,55101
42470,55087
42473,55102
42479,55112
42473,55105
42481,55124
42482,55106
42458,55053
42458,55014
42443,55006
42425,54972
42433,54960
42433,54954
42434,54944
42429,54948
42416,54932
42429,54924
42410,54946
42448,54934
42435,54938
42433,54947
42420,54957
42409,54955
42424,54953
42421,54958
42431,54955
42426,54935
42433,54937
42426,54915
42425,54928
42416,54914
42422,54911
42412,54921
42427,54911
42403,54896
42410,54917
42418,54901
42422,54910
42422,54921
42438,54905
42438,54914
42421,54923
42430,54917
42429,54919
42415,54923
42424,54907
42432,54905
42415,54898
42419,54889
42426,54899
42409,54899
42422,54904
42419,54887
42414,54901
42415,54890
42413,54893
42419,54892
42421,54912
42404,54902
42425,54903
42432,54915
42428,54906
42420,54898
42425,54915
42435,54920
42427,54916
42431,54920
42423,54918
42430,54906
42424,54921
42430,54927
42425,54930
42434,54931
42440,54919
42431,54950
42426,54939
42431,54942
42431,54931
42430,54937
42421,54939
42431,54943
42435,54952
42419,54956
42445,54948
42424,54954
42443,54944
42432,54958
42438,54950
42448,54963
42446,54960
42430,54966
42448,54974
42444,54975
42435,54960
42439,54968
42435,54973
42428,54998
42447,54982
42439,54985
42438,54985
42441,54994
42432,55005
42437,55001
42451,54999
42433,54999
42450,55014
42448,55013
42439,55009
42452,55018
42445,55016
42463,55025
42456,55035
42441,55033
42460,55028
42446,55020
42454,55049
42458,55036
42461,55043
42468,55049
42454,55059
42461,55045
42463,55058
42469,55066
42477,55077
42459,55071
42476,55066
42456,55062
42448,55056
42438,55030
42465,55016
42438,54981
42433,54959
42434,54948
42423,54959
42420,54930
42412,54931
42416,54927
42419,54933
42415,54939
42415,54940
42426,54932
42428,54951
42411,54948
42427,54947
42425,54941
42430,54936
42427,54944
42425,54932
42430,54956
42422,54934
42427,54924
42420,54915
42429,54920
42421,54906
42418,54919
42424,54890
42434,54922
42408,54915
42419,54912
42432,54915
42429,54924
42420,54927
42421,54930
42419,54921
42429,54920
42417,54934
42415,54917
42422,54930
42426,54925
42421,54923
42428,54914
42411,54925
42427,54904
42427,54902
42421,54910
42428,54922
42431,54912
42419,54919
42422,54928
42423,54935
42435,54933
42429,54920
42433,54950
42425,54930
42431,54932
42443,54955
42420,54944
42430,54936
42447,54949
42427,54955
42428,54943
42421,54961
42444,54952
42447,54972
42437,54971
42441,54974
42433,54970
42456,54975
42439,54966
42445,54968
42438,54988
42437,54983
42451,54987
42445,54967
42442,54983
42428,54978
42450,54991
42443,54992
42440,54992
42455,54985
42459,54986
42455,55001
42456,55006
42466,54997
42466,55024
42463,55027
42454,54999
42449,55021
42444,55017
42454,55024
42451,55023
42443,55035
42478,55033
42456,55042
42461,55041
42465,55056
42466,55046
42451,55057
42460,55061
42469,55057
42469,55067
42454,55077
42473,55075
42460,55082
42467,55062
42473,55092
42471,55086
42477,55099
42464,55099
42463,55084
42473,55113
42462,55090
42484,55104
42476,55105
42469,55122
42477,55094
42475,55124
42484,55129
42477,55141
42487,55131
42485,55132
42486,55148
42489,55141
42489,55141
42482,55163
42518,55165
42496,55172
42491,55169
42491,55169
42494,55190
42460,55061
42502,55165
42489,55179
42466,55159
42469,55110
42473,55063
42463,55051
42453,55075
42453,55071
42460,55074
42464,55051
42461,55065
42454,55050
42466,55068
42465,55064
42494,55070
42442,55060
42439,55077
42457,55092
42468,55082
42462,55085
42473,55075
42464,55068
42464,55069
42456,55077
42466,55074
42451,55079
42463,55071
42467,55079
42459,55073
42455,55053
42467,55049
42466,55055
42456,55091
42478,55067
42456,55074
42458,55081
42477,55086
42480,55066
42472,55076
42470,55088
42473,55084
42468,55076
42475,55074
42461,55069
42466,55062
42460,55070
42463,55076
42476,55087
42456,55087
42474,55069
42468,55063
42476,55077
42476,55100
42470,55082
42484,55101
42468,55099
42474,55087
42469,55104
42475,55097
42470,55096
42484,55099
42484,55111
42477,55123
42479,55112
42483,55133
42487,55102
42470,55116
42475,55128
42484,55131
42480,55116
42485,55127
42486,55136
42486,55131
42491,55138
42486,55145
42476,55128
42480,55127
42490,55133
42486,55147
42493,55139
42498,55132
42498,55156
42506,55142
42493,55158
42499,55152
42486,55152
42500,55166
42474,55162
42506,55148
42493,55172
42488,55165
42510,55181
42496,55177
42503,55177
42501,55183
42501,55189
42509,55189
42511,55184
42505,55185
42496,55183
42519,55196
42501,55197
42507,55193
42490,55203
42515,55207
42496,55205
42503,55205
42500,55227
42495,55212
42507,55217
42500,55220
42508,55219
42506,55218
42513,55225
42512,55189
42492,55185
42488,55160
42501,55144
42486,55137
42471,55127
42467,55115
42474,55090
42480,55091
42466,55097
42470,55104
42464,55106
42466,55088
42465,55099
42469,55107
42477,55102
42482,55098
42471,55091
42475,55095
42471,55081
42468,55114
42460,55086
42462,55089
42468,55076
42465,55081
42454,55073
42465,55080
42458,55067
42460,55083
42466,55059
42462,55073
42474,55077
42464,55074
42464,55059
42474,55061
42474,55056
42464,55079
42456,55089
42467,55076
42460,55062
42478,55075
42470,55071
42468,55069
42466,55075
42451,55067
42450,55059
42464,55070
42467,55062
42472,55060
42472,55056
42464,55055
42461,55062
42459,55062
42476,55054
42473,55058
42469,55066
42477,55075
42464,55068
42483,55079
42499,55074
42485,55094
42474,55095
42481,55082
42477,55074
42479,55090
42486,55083
42472,55095
42488,55110
42483,55088
42484,55081
42497,55101
42484,55106
42488,55105
42491,55093
42476,55089
42487,55090
42470,55101
42479,55118
42477,55114
42478,55093
42495,55092
42494,55117
42493,55117
42483,55105
42487,55114
42490,55113
42494,55118
42498,55129
42502,55130
42495,55130
42495,55130
42487,55141
42504,55134
42498,55125
42500,55126
42499,55117
42507,55144
42495,55147
42503,55140
42514,55136
42508,55155
42505,55138
42501,55151
42499,55154
42486,55148
42515,55168
42506,55156
42510,55165
42519,55167
42503,55180
42500,55169
42519,55192
42500,55173
42499,55183
42509,55175
42517,55195
42512,55178
42506,55191
42521,55199
42519,55188
42524,55224
42514,55199
42516,55205
42500,55219
42511,55195
42523,55170
42510,55207
42513,55196
42522,55216
42500,55201
42504,55174
42502,55153
42486,55137
42494,55112
42472,55102
42493,55081
42485,55082
42470,55081
42475,55060
42481,55080
42473,55067
42490,55019
42476,55006
42478,55046
42478,55051
42471,55052
42478,55046
42477,55041
42476,55026
42476,55042
42466,55047
42510,55030
42485,55026
42458,55018
42474,55015
42500,55219
42453,55008
42453,55003
42461,55001
42456,55018
42477,54983
42462,54988
42479,55009
42477,55008
42464,55006
42469,55005
42467,55012
42470,55002
42472,54984
42473,54988
42463,54986
42466,54985
42482,54991
42467,54991
42457,54973
42461,54988
42462,54995
42462,54988
42452,54978
42468,54992
42467,54974
42465,54969
42480,54973
42451,54977
42481,54994
42475,54976
42464,54995
42471,54993
42468,54989
42474,54990
42483,54999
42483,55002
42481,54998
42468,54989
42480,54999
42474,54996
42477,54984
42478,55005
42486,54990
42492,55012
42485,54994
42472,54993
42491,55009
42478,55018
42476,54998
42497,54979
42494,55015
42475,55009
42480,55014
42499,55017
42470,55014
42483,55025
42496,55018
42489,55030
42495,55021
42487,55024
42488,55032
42498,55037
42503,55034
42506,55025
42477,55033
42491,55049
42508,55040
42503,55042
42485,55047
42509,55048
42500,55045
42503,55066
42507,55060
42496,55070
42505,55047
42515,55065
42502,55071
42492,55078
42502,55090
42503,55079
42511,55081
42522,55091
42494,55087
42513,55093
42518,55085
42506,55088
42518,55095
42517,55100
42516,55108
42530,55104
42521,55103
42521,55114
42524,55105
42517,55115
42529,55109
42527,55113
42529,55128
42511,55136
42530,55117
42522,55150
42517,55139
42524,55134
42529,55140
42515,55130
42517,55130
42513,55115
42493,55080
42491,55058
42483,55053
42480,55021
42476,55002
42469,55006
42488,54975
42459,54980
42486,54953
42479,54970
42473,54971
42486,54986
42461,54971
42474,54967
42471,54976
42477,54969
42472,54970
42464,54973
42474,54974
42464,54957
42460,54968
42473,54962
42473,54941
42449,54952
42464,54940
42454,54927
42466,54939
42443,54935
42460,54928
42474,54945
42455,54949
42471,54942
42477,54931
42485,54937
42465,54943
42459,54934
42457,54939
42476,54933
42454,54933
42458,54942
42456,54922
42459,54929
42451,54906
42452,54910
42454,54924
42473,54922
42447,54924
42447,54935
42457,54934
42450,54921
42460,54914
42451,54925
42449,54919
42464,54925
42449,54920
42457,54928
42458,54934
42451,54940
42455,54947
42445,54925
42456,54948
42450,54943
42462,54946
42456,54935
42458,54945
42468,54960
42460,54965
42466,54945
42459,54963
42471,54963
42469,54972
42479,54954
42457,54947
42456,54962
42472,54960
42454,54971
42444,54973
42459,54984
42450,54966
42474,54972
42471,54977
42465,54964
42469,54986
42461,54980
42461,54983
42474,54989
42478,55002
42485,54991
42452,54972
42477,55007
42471,55008
42475,55028
42470,55001
42470,55006
42471,55015
42476,54992
42466,55019
42473,55015
42471,55022
42460,55027
42466,55014
42471,55026
42472,55022
42462,55029
42483,55034
42472,55032
42456,55038
42465,55049
42473,55063
42470,55059
42483,55044
42485,55060
42479,55048
42484,55084
42497,55047
42482,55068
42466,55076
42468,55070
42482,55070
42476,55053
42469,55058
42463,55026
42442,55001
42451,55009
42441,54961
42451,54943
42430,54942
42414,54925
42414,54901
42422,54900
42418,54917
42409,54929
42416,54913
42427,54878
42432,54898
42413,54892
42407,54896
42423,54886
42419,54905
42420,54903
42413,54899
42412,54892
42414,54879
42427,54867
42416,54870
42383,54875
42497,55047
42397,54857
42406,54853
42385,54867
42406,54862
42397,54865
42402,54861
42395,54877
42393,54846
42399,54876
42403,54876
42401,54876
42395,54867
42395,54869
42382,54858
42384,54864
42381,54851
42398,54861
42398,54834
42396,54857
42381,54840
42390,54863
42386,54864
42393,54846
42396,54839
42396,54849
42403,54848
42375,54850
42402,54855
42413,54848
42392,54861
42400,54862
42398,54857
42401,54868
42393,54861
42396,54859
42403,54868
42387,54880
42388,54866
42385,54858
42393,54864
42381,54879
42402,54874
42404,54874
42393,54871
42396,54898
42403,54890
42396,54878
42412,54891
42415,54886
42413,54893
42396,54888
42397,54892
42394,54893
42390,54895
42411,54904
42404,54905
42397,54918
42422,54909
42413,54906
42423,54926
42414,54911
42407,54917
42412,54913
42409,54905
42399,54923
42416,54922
42404,54930
42412,54927
42407,54918
42417,54942
42412,54936
42405,54935
42406,54948
42417,54948
42411,54956
42421,54939
42419,54948
42427,54947
42408,54970
42418,54971
42416,54967
42422,54989
42433,54969
42413,54977
42425,54981
42427,54981
42412,54985
42439,54969
42420,55006
42436,55007
42414,55012
42427,55005
42442,55004
42439,55007
42418,55007
42438,55019
42431,55016
42434,55021
42423,55026
42445,55021
42439,55031
42438,55033
42442,55027
42444,55063
42443,55053
42432,55046
42429,55030
42430,55018
42425,54992
42423,54952
42409,54940
42406,54919
42384,54890
42395,54895
42394,54878
42376,54877
42377,54876
42392,54873
42376,54870
42378,54868
42374,54865
42384,54883
42383,54880
42386,54877
42387,54898
42382,54867
42385,54870
42372,54863
42373,54866
42370,54846
42394,54871
42387,54855
42372,54834
42384,54845
42369,54835
42379,54836
42373,54846
42373,54848
42377,54833
42390,54847
42374,54840
42385,54832
42393,54850
42381,54846
42393,54855
42387,54850
42376,54844
42380,54851
42380,54862
42378,54841
42389,54820
42361,54851
42373,54848
42371,54827
42367,54828
42373,54834
42368,54838
42379,54822
42379,54848
42384,54834
42375,54837
42391,54846
42386,54855
42386,54838
42387,54856
42399,54851
42393,54854
42374,54846
42387,54856
42388,54865
42391,54851
42373,54858
42392,54859
42379,54874
42397,54877
42395,54851
42387,54879
42393,54856
42390,54857
42391,54863
42378,54875
42383,54859
42388,54872
42387,54866
42389,54890
42386,54879
42393,54882
42400,54883
42394,54881
42388,54891
42390,54887
42400,54899
42401,54884
42391,54897
42398,54888
42401,54908
42380,54904
42400,54898
42411,54908
42393,54905
42400,54913
42410,54917
42398,54897
42400,54914
42401,54923
42397,54920
42389,54935
42407,54912
42403,54914
42417,54928
42401,54920
42405,54934
42404,54942
42408,54929
42403,54943
42408,54950
42394,54938
42418,54958
42411,54959
42388,54961
42417,54962
42418,54935
42412,54961
42409,54954
42403,54939
42389,54919
42391,54912
42381,54894
42359,54867
42363,54838
42365,54832
42371,54807
42356,54815
42359,54806
42349,54811
42363,54787
42401,54923
42359,54808
42352,54816
42356,54837
42357,54805
42363,54776
42363,54792
42354,54802
42354,54801
42347,54791
42341,54781
42342,54781
42351,54772
42351,54760
42357,54778
42356,54763
42328,54766
42293,54753
42412,54961
42354,54771
42347,54768
42362,54790
42343,54778
42348,54756
42343,54782
42349,54772
42370,54771
42342,54755
42353,54772
42339,54772
42359,54757
42358,54767
42344,54764
42344,54763
42350,54763
42359,54756
42337,54757
42337,54762
42334,54756
42353,54765
42347,54737
42356,54746
42350,54760
42348,54785
42344,54773
42334,54768
42342,54766
42348,54753
42348,54777
42358,54793
42338,54777
42352,54766
42355,54785
42366,54759
42341,54788
42361,54779
42368,54793
42351,54784
42357,54793
42370,54798
42364,54786
42359,54808
42364,54789
42362,54808
42356,54791
42363,54810
42370,54801
42372,54807
42372,54821
42365,54802
42357,54811
42372,54818
42365,54818
42387,54823
42378,54819
42379,54823
42354,54829
42367,54830
42366,54831
42363,54821
42362,54839
42367,54837
42374,54853
42379,54841
42371,54828
42363,54842
42380,54856
42375,54859
42375,54855
42381,54856
42374,54857
42386,54883
42393,54877
42396,54875
42387,54870
42393,54876
42390,54882
42382,54900
42398,54893
42385,54894
42392,54901
42401,54900
42381,54893
42387,54909
42389,54913
42389,54904
42391,54924
42399,54929
42408,54920
42400,54925
42406,54930
42413,54933
42396,54930
42420,54945
42405,54930
42411,54942
42403,54930
42391,54899
42385,54891
42380,54858
42364,54840
42366,54837
42356,54801
42339,54798
42341,54791
42342,54791
42347,54774
42360,54792
42348,54776
42358,54795
42359,54780
42352,54783
42346,54794
42349,54785
42360,54796
42328,54782
42348,54782
42346,54782
42349,54785
42343,54759
42343,54756
42341,54746
42344,54756
42338,54744
42336,54743
42339,54731
42347,54737
42336,54739
42340,54734
42327,54754
42352,54751
42336,54754
42335,54729
42347,54759
42347,54750
42362,54755
42347,54742
42333,54744
42336,54733
42347,54754
42352,54751
42337,54741
42333,54731
42344,54742
42345,54737
42354,54730
42360,54739
42352,54727
42344,54754
42358,54741
42359,54756
42350,54732
42359,54755
42356,54760
42372,54761
42365,54759
42374,54762
42359,54750
42369,54766
42355,54752
42364,54766
42369,54772
42361,54779
42365,54776
42363,54778
42363,54764
42368,54785
42362,54784
42374,54781
42373,54781
42374,54773
42363,54790
42371,54779
42376,54795
42359,54794
42384,54786
42358,54808
42372,54803
42375,54810
42385,54815
42392,54807
42373,54823
42374,54824
42374,54821
42392,54816
42383,54824
42386,54833
42381,54837
42400,54832
42383,54829
42394,54844
42392,54842
42384,54840
42378,54842
42395,54842
42373,54861
42393,54853
42395,54862
42395,54853
42379,54867
42406,54862
42406,54877
42398,54884
42392,54885
42412,54888
42409,54891
42393,54895
42407,54894
42394,54907
42411,54903
42402,54890
42405,54921
42415,54911
42404,54916
42409,54931
42400,54921
42423,54923
42434,54912
42423,54933
42422,54938
42416,54935
42428,54940
42406,54945
42413,54947
42426,54959
42426,54953
42435,54966
42423,54937
42405,54944
42418,54917
42418,54913
42407,54900
42415,54864
42384,54865
42401,54858
42388,54850
42378,54850
42372,54860
42373,54821
42391,54838
42382,54816
42391,54828
42391,54840
42386,54860
42390,54849
42383,54852
42401,54865
42398,54863
42407,54852
42393,54859
42413,54847
42394,54843
42385,54843
42366,54874
42377,54854
42390,54850
42394,54851
42397,54852
42395,54850
42392,54858
42382,54870
42394,54867
42401,54871
42403,54871
42407,54881
42398,54867
42394,54857
42403,54869
42391,54874
42404,54866
42399,54858
42404,54872
42408,54874
42396,54877
42403,54880
42393,54882
42425,54877
42401,54864
42397,54892
42409,54883
42412,54894
42413,54887
42394,54893
42410,54890
42418,54911
42407,54897
42417,54899
42403,54894
42399,54920
42418,54902
42415,54923
42410,54910
42417,54918
42418,54924
42417,54925
42422,54937
42428,54923
42410,54935
42411,54932
42415,54932
42417,54926
42398,54920
42404,54944
42428,54936
42425,54949
42436,54935
42447,54941
42434,54931
42424,54927
42416,54957
42429,54965
42430,54946
42418,54945
42434,54940
42435,54963
42431,54966
42428,54978
42431,54966
42433,54952
42427,54972
42421,54984
42439,54974
42431,54973
42444,54982
42421,54976
42449,54981
42432,54984
42442,54998
42433,54999
42425,55002
42436,54986
42449,55005
42450,55015
42442,55012
42447,55025
42438,55014
42447,55011
42443,55021
42452,55028
42450,55028
42439,55014
42431,54994
42426,54983
42429,54964
42411,54950
42402,54928
42422,54931
42419,54935
42411,54908
42401,54903
42409,54903
42410,54914
42417,54917
42421,54917
42421,54910
42424,54916
42411,54920
42406,54916
42416,54927
42415,54912
42408,54917
42404,54907
42413,54888
42404,54898
42410,54892
42413,54893
42409,54897
42410,54883
42414,54881
42408,54882
42411,54885
42403,54878
42407,54885
42410,54904
42406,54913
42419,54890
42417,54900
42415,54897
42405,54904
42413,54880
42424,54885
42403,54893
42412,54891
42409,54901
42419,54885
42408,54885
42401,54888
42400,54869
42404,54891
42423,54900
42400,54889
42396,54886
42400,54891
42409,54900
42403,54906
42422,54873
42407,54881
42415,54900
42411,54897
42437,54901
42420,54898
42430,54901
42415,54907
42403,54908
42434,54895
42426,54914
42428,54916
42429,54903
42413,54908
42422,54897
42411,54920
42435,54921
42428,54925
42430,54917
42411,54910
42413,54923
42433,54913
42414,54919
42423,54902
42439,54914
42413,54932
42438,54918
42435,54947
42421,54941
42447,54947
42426,54945
42429,54945
42427,54934
42433,54958
42440,54960
42422,54954
42436,54964
42439,54955
42449,54963
42437,54970
42440,54952
42431,54967
42450,54967
42450,54958
42449,54983
42442,54968
42437,54977
42433,54991
42434,54998
42443,54974
42457,55007
42440,54975
42452,54994
42454,54999
42437,54999
42461,55005
42453,54996
42441,55004
42451,55005
42453,55020
42458,55008
42461,55004
42470,55020
42458,55019
42439,55016
42462,55023
42467,55019
42468,55021
42466,55038
42478,55044
42464,55042
42470,55026
42461,55029
42463,55038
42476,55053
42468,55051
42476,55050
42463,55057
42469,55059
42461,55052
42478,55012
42471,55028
42460,55032
42441,54985
42442,54980
42434,54977
42427,54950
42436,54929
42438,54931
42424,54923
42445,54925
42427,54925
42439,54922
42426,54928
42453,54926
42443,54960
42452,54955
42426,54933
42426,54895
42448,54930
42430,54910
42435,54920
42442,54925
42422,54908
42422,54903
42428,54911
42431,54891
42439,54909
42462,54896
42420,54890
42427,54897
42397,54904
42398,54901
42432,54914
42437,54907
42431,54905
42442,54903
42428,54896
42428,54900
42434,54892
42445,54883
42426,54887
42421,54885
42430,54870
42426,54864
42422,54873
42430,54890
42425,54869
42444,54865
42418,54881
42435,54866
42429,54891
42434,54888
42443,54875
42421,54878
42436,54874
42428,54882
42427,54884
42435,54901
42446,54894
42436,54885
42437,54884
42437,54894
42441,54897
42440,54893
42427,54909
42429,54904
42451,54896
42429,54889
42448,54904
42430,54903
42437,54914
42436,54893
42440,54915
42446,54897
42441,54920
42430,54899
42437,54908
42439,54913
42434,54911
42445,54907
42447,54907
42444,54915
42452,54926
42436,54912
42438,54925
42452,54917
42451,54920
42446,54944
42445,54922
42458,54909
42448,54939
42452,54939
42457,54937
42454,54939
42446,54945
42467,54936
42454,54945
42450,54949
42457,54944
42462,54944
42469,54968
42447,54967
42463,54982
42461,54973
42462,54956
42476,54977
42474,54958
42463,54975
42454,54969
42468,54980
42473,54994
42474,54997
42469,54997
42463,54993
42461,55011
42471,54992
42468,55000
42470,54992
42473,54989
42470,54996
42455,54980
42465,54979
42460,54958
42451,54940
42445,54919
42425,54905
42453,54897
42435,54906
42424,54899
42431,54891
42431,54885
42423,54892
42446,54885
42432,54886
42424,54884
42432,54882
42446,54884
42441,54880
42429,54877
42435,54875
42426,54868
42422,54867
42429,54870
42425,54859
42418,54863
42429,54831
42415,54859
42435,54857
42408,54827
42427,54851
42416,54860
42414,54843
42423,54862
42422,54849
42420,54862
42433,54861
42432,54858
42422,54853
42418,54847
42409,54852
42424,54839
42432,54844
42415,54849
42423,54857
42430,54845
42416,54848
42421,54846
42416,54842
42417,54851
42405,54843
42424,54847
42424,54849
42424,54845
42432,54867
42419,54848
42426,54853
42428,54864
42422,54850
42424,54864
42439,54850
42424,54854
42424,54859
42422,54874
42420,54869
42433,54877
42420,54880
42434,54854
42421,54887
42430,54894
42424,54876
42422,54880
42433,54889
42426,54895
42426,54893
42437,54883
42425,54885
42445,54881
42435,54891
42418,54911
42428,54891
42424,54901
42426,54909
42445,54906
42448,54897
42442,54925
42434,54903
42428,54925
42451,54922
42468,54914
42442,54912
42437,54911
42434,54939
42443,54932
42438,54936
42438,54938
42447,54949
42457,54953
42436,54931
42442,54939
42442,54941
42455,54964
42463,54957
42443,54950
42466,54978
42448,54951
42454,54953
42452,54972
42460,54982
42459,54988
42460,54976
42457,54985
42451,54983
42457,54998
42457,54988
42460,54977
42475,54994
42464,54994
42459,55001
42469,54995
42460,55000
42478,55019
42479,55011
42462,55017
42478,55011
42474,55021
42464,55029
42490,55037
42487,55036
42467,55027
42484,55031
42464,55037
42496,55046
42488,55038
42487,55042
42475,55023
42478,55048
42495,55064
42491,55068
42479,55050
42476,55043
42469,55028
42458,55007
42448,55000
42453,54991
42475,54965
42460,54953
42443,54953
42437,54941
42431,54936
42439,54966
42430,54972
42454,54938
42442,54910
42442,54941
42453,54923
42447,54948
42452,54956
42457,54960
42450,54954
42449,54949
42442,54932
42452,54929
42460,54923
42457,54936
42427,54938
42432,54925
42475,55023
42429,54924
42436,54920
42441,54929
42431,54934
42444,54925
42442,54926
42449,54931
42451,54960
42440,54927
42429,54947
42441,54945
42448,54956
42433,54942
42447,54941
42447,54937
42433,54929
42433,54948
42446,54922
42459,54931
42451,54932
42452,54945
42449,54932
42460,54932
42453,54941
42432,54947
42440,54944
42452,54946
42455,54952
42448,54945
42449,54948
42462,54955
42455,54961
42460,54961
42462,54966
42459,54969
42462,54954
42453,54978
42467,54960
42460,54970
42468,54974
42456,54961
42465,54983
42478,54967
42460,54965
42469,54975
42476,54986
42453,55003
42469,54976
42462,54988
42470,54990
42455,54980
42465,54999
42474,54980
42466,55004
42473,54998
42481,55001
42484,54995
42477,55000
42478,55011
42467,55001
42474,55022
42482,55017
42478,55016
42476,55037
42487,55034
42472,55019
42477,55033
42482,55025
42471,55033
42475,55026
42475,55043
42482,55040
42476,55032
42491,55052
42487,55052
42481,55062
42508,55050
42484,55052
42474,55060
42487,55059
42486,55061
42493,55073
42488,55073
42495,55074
42488,55077
42490,55067
42488,55083
42496,55080
42488,55080
42500,55095
42504,55107
42486,55089
42499,55088
42494,55094
42490,55100
42499,55103
42499,55105
42494,55114
42494,55098
42505,55109
42498,55096
42491,55110
42498,55091
42495,55075
42490,55048
42475,55054
42470,55031
42456,55021
42466,55007
42463,55000
42482,54994
42445,54991
42469,55021
42468,55008
42468,55010
42483,55026
42471,55027
42479,55035
42465,55035
42480,55020
42486,55028
42472,55021
42464,54996
42481,55017
42462,55010
42471,54996
42470,55002
42477,55014
42462,54971
42461,54979
42444,54994
42466,54987
42458,55004
42472,54997
42467,55004
42483,55006
42455,55014
42463,55021
42476,54997
42457,54998
42454,55008
42459,55004
42471,55021
42470,54999
42458,55015
42454,55002
42470,54993
42459,54997
42471,55011
42484,55006
42468,55018
42470,55013
42459,54998
42473,55032
42472,55002
42470,55015
42452,55029
42485,55033
42466,55043
42487,55020
42480,55042
42483,55042
42486,55017
42489,55061
42483,55037
42476,55050
42497,55049
42502,55041
42490,55054
42494,55032
42485,55058
42487,55035
42497,55042
42489,55046
42485,55042
42495,55059
42494,55063
42502,55063
42486,55063
42474,55066
42494,55073
42474,55064
42481,55074
42503,55084
42496,55078
42493,55076
42503,55082
42500,55078
42506,55078
42509,55090
42502,55090
42520,55087
42490,55105
42510,55098
42515,55096
42517,55108
42505,55116
42506,55120
42513,55101
42513,55125
42510,55122
42520,55122
42506,55110
42519,55117
42514,55123
42521,55121
42512,55128
42518,55133
42513,55132
42520,55125
42507,55137
42517,55150
42521,55140
42523,55150
42532,55152
42527,55160
42513,55156
42513,55152
42528,55169
42531,55159
42512,55165
42532,55180
42527,55134
42529,55173
42520,55184
42540,55178
42533,55163
42526,55168
42531,55176
42530,55172
42535,55186
42533,55188
42562,55210
42535,55191
42536,55173
42521,55154
42520,55147
42500,55141
42505,55097
42495,55048
42501,55062
42504,55080
42476,55084
42493,55090
42485,55079
42504,55076
42504,55092
42500,55079
42533,55091
42517,55094
42523,55089
42497,55085
42479,55088
42532,55180
42479,55099
42496,55087
42511,55080
42504,55082
42496,55060
42490,55068
42501,55075
42496,55067
42495,55067
42487,55068
42493,55067
42505,55075
42501,55087
42501,55068
42496,55079
42500,55088
42497,55092
42513,55070
42501,55083
42506,55092
42499,55082
42495,55074
42507,55082
42508,55073
42518,55086
42504,55078
42515,55073
42503,55080
42499,55077
42498,55063
42508,55079
42501,55105
42503,55077
42511,55098
42516,55080
42520,55087
42520,55109
42517,55103
42515,55110
42517,55105
42515,55114
42532,55110
42522,55109
42517,55120
42517,55119
42535,55109
42521,55125
42528,55133
42536,55129
42518,55129
42531,55119
42535,55124
42523,55131
42507,55121
42531,55147
42534,55137
42542,55150
42539,55144
42527,55149
42538,55153
42531,55140
42540,55147
42535,55149
42532,55147
42542,55150
42533,55166
42551,55153
42531,55160
42545,55167
42534,55161
42541,55172
42539,55146
42548,55175
42552,55181
42551,55172
42565,55179
42535,55186
42551,55182
42548,55195
42548,55192
42542,55196
42555,55192
42564,55197
42559,55197
42560,55197
42557,55203
42548,55198
42544,55200
42548,55206
42555,55217
42559,55216
42557,55216
42578,55217
42554,55234
42562,55236
42552,55209
42566,55208
42561,55218
42563,55236
42557,55229
42559,55253
42577,55242
42568,55237
42554,55230
42550,55196
42563,55196
42537,55175
42543,55160
42547,55151
42511,55127
42534,55124
42523,55119
42523,55118
42525,55127
42524,55115
42536,55101
42534,55130
42528,55129
42530,55133
42534,55137
42535,55141
42514,55133
42522,55141
42541,55127
42531,55136
42528,55135
42530,55126
42532,55107
42532,55115
42513,55125
42537,55115
42523,55106
42524,55115
42526,55110
42508,55112
42531,55114
42529,55130
42531,55124
42535,55115
42528,55126
42541,55118
42531,55115
42524,55122
42528,55111
42528,55100
42536,55117
42536,55142
42535,55115
42531,55114
42530,55126
42526,55112
42535,55131
42523,55135
42528,55124
42534,55132
42528,55134
42521,55126
42552,55131
42533,55141
42537,55138
42549,55133
42537,55153
42543,55143
42537,55158
42545,55147
42558,55151
42550,55147
42540,55141
42545,55157
42541,55144
42544,55167
42542,55146
42549,55161
42543,55162
42534,55162
42557,55164
42556,55166
42539,55174
42557,55175
42556,55176
42556,55179
42548,55179
42565,55188
42560,55163
42554,55187
42552,55180
42571,55186
42552,55199
42551,55192
42562,55185
42556,55191
42566,55202
42577,55206
42577,55192
42567,55209
42558,55212
42574,55212
42575,55217
42563,55210
42576,55212
42570,55209
42563,55226
42572,55206
42567,55219
42574,55228
42569,55219
42570,55232
42572,55225
42566,55233
42576,55237
42572,55236
42574,55243
42594,55251
42582,55250
42588,55233
42590,55260
42576,55263
42572,55256
42586,55289
42581,55241
42594,55272
42579,55273
42581,55268
42584,55255
42581,55278
42575,55273
42593,55288
42595,55278
42594,55268
42578,55248
42576,55229
42574,55192
42560,55198
42563,55189
42532,55181
42554,55142
42549,55154
42558,55165
42557,55145
42554,55121
42554,55120
42548,55123
42551,55155
42558,55147
42573,55154
42550,55160
42547,55162
42542,55139
42557,55147
42585,55144
42580,55144
42559,55139
42558,55129
42579,55273
42534,55126
42542,55118
42537,55117
42534,55121
42541,55119
42547,55119
42533,55112
42556,55129
42556,55125
42534,55123
42539,55136
42561,55125
42550,55134
42541,55116
42557,55133
42546,55129
42544,55127
42552,55107
42542,55132
42543,55113
42556,55128
42544,55121
42546,55114
42534,55110
42550,55115
42555,55108
42540,55120
42557,55112
42561,55125
42544,55140
42554,55131
42549,55141
42550,55120
42558,55127
42556,55127
42550,55150
42561,55131
42551,55147
42566,55136
42572,55148
42561,55151
42572,55144
42561,55154
42555,55166
42566,55157
42576,55146
42560,55162
42570,55161
42578,55158
42576,55169
42577,55159
42562,55171
42564,55170
42583,55163
42562,55166
42555,55158
42577,55157
42574,55177
42573,55162
42563,55159
42582,55177
42585,55189
42587,55179
42581,55191
42581,55201
42569,55202
42585,55195
42560,55196
42591,55197
42594,55208
42567,55193
42578,55213
42586,55217
42588,55196
42588,55213
42592,55224
42584,55209
42581,55210
42600,55223
42580,55227
42590,55228
42610,55210
42589,55220
42592,55220
42610,55234
42599,55232
42582,55238
42593,55238
42596,55243
42599,55245
42594,55246
42588,55257
42591,55241
42598,55245
42591,55262
42595,55246
42603,55268
42611,55268
42598,55257
42611,55267
42586,55250
42594,55257
42605,55234
42584,55222
42573,55180
42571,55159
42570,55154
42540,55135
42561,55128
42554,55113
42545,55124
42548,55109
42560,55109
42544,55118
42567,55114
42551,55127
42563,55105
42560,55099
42570,55121
42547,55116
42559,55119
42549,55116
42550,55112
42553,55095
42552,55076
42558,55092
42537,55074
42527,55075
42550,55079
42537,55073
42546,55053
42547,55077
42526,55072
42545,55081
42545,55072
42540,55073
42544,55087
42533,55081
42548,55091
42564,55087
42529,55076
42536,55071
42544,55061
42534,55051
42536,55068
42552,55059
42530,55053
42537,55060
42535,55055
42547,55062
42542,55064
42547,55068
42544,55059
42547,55059
42544,55056
42550,55050
42538,55059
42538,55059
42555,55056
42540,55060
42540,55069
42552,55077
42542,55077
42548,55075
42538,55070
42550,55086
42564,55068
42542,55070
42536,55076
42575,55073
42542,55083
42557,55093
42540,55080
42554,55103
42547,55087
42553,55084
42541,55086
42544,55090
42547,55091
42562,55092
42558,55095
42548,55091
42543,55078
42571,55088
42540,55089
42547,55087
42559,55075
42552,55113
42558,55101
42541,55093
42560,55093
42571,55109
42549,55115
42558,55119
42556,55117
42554,55111
42556,55112
42559,55107
42552,55123
42559,55128
42555,55124
42555,55123
42552,55120
42561,55129
42563,55127
42563,55133
42570,55139
42562,55145
42562,55140
42564,55135
42571,55146
42576,55151
42577,55141
42572,55145
42567,55155
42581,55143
42586,55161
42578,55160
42586,55175
42568,55175
42583,55159
42571,55175
42586,55179
42578,55177
42565,55165
42576,55180
42571,55155
42556,55121
42556,55111
42563,55100
42540,55067
42528,55073
42525,55028
42521,55018
42552,55120
42528,55020
42512,55022
42530,55015
42518,55000
42509,54971
42510,54978
42511,54993
42515,54996
42516,55004
42517,54985
42507,54972
42520,54979
42512,54981
42524,54961
42519,54962
42503,54950
42491,54946
42583,55159
42494,54947
42496,54941
42495,54932
42492,54925
42503,54931
42511,54947
42507,54930
42504,54948
42507,54924
42494,54939
42515,54940
42511,54941
42511,54919
42497,54927
42486,54933
42498,54921
42503,54895
42505,54901
42475,54913
42499,54906
42485,54911
42502,54917
42496,54906
42487,54894
42486,54906
42483,54907
42488,54890
42493,54912
42483,54897
42493,54902
42490,54904
42492,54914
42498,54908
42493,54910
42504,54898
42501,54916
42502,54922
42483,54927
42495,54915
42490,54925
42496,54889
42490,54908
42488,54916
42491,54919
42489,54930
42498,54912
42480,54903
42484,54909
42496,54930
42498,54922
42496,54929
42498,54921
42478,54925
42505,54934
42506,54917
42504,54924
42510,54929
42497,54932
42495,54926
42503,54927
42507,54949
42500,54930
42511,54952
42511,54950
42507,54937
42505,54945
42511,54967
42512,54958
42501,54961
42517,54963
42503,54941
42519,54956
42503,54953
42526,54963
42511,54977
42515,54974
42515,54980
42512,54989
42509,54973
42520,54990
42522,54977
42501,54996
42529,54995
42535,54994
42532,54998
42527,54987
42523,54996
42537,55019
42531,54992
42533,55022
42544,55007
42532,55029
42531,55021
42525,55034
42538,55022
42524,55021
42548,55045
42547,55032
42540,55042
42544,55037
42544,55039
42545,55045
42533,55047
42535,55027
42535,55013
42530,54988
42506,54967
42509,54951
42499,54913
42481,54904
42483,54883
42480,54877
42470,54857
42468,54862
42480,54856
42476,54850
42474,54843
42462,54856
42472,54865
42466,54864
42487,54857
42483,54861
42487,54859
42484,54852
42478,54859
42481,54832
42468,54854
42471,54831
42465,54858
42476,54822
42465,54824
42472,54808
42467,54801
42462,54805
42478,54808
42461,54805
42463,54821
42465,54815
42461,54805
42467,54803
42449,54810
42457,54823
42457,54810
42481,54816
42465,54809
42471,54793
42465,54800
42457,54794
42457,54794
42464,54773
42470,54773
42468,54785
42455,54772
42463,54799
42451,54775
42448,54788
42456,54778
42464,54780
42461,54775
42471,54784
42471,54780
42473,54783
42475,54789
42462,54779
42475,54800
42452,54777
42470,54794
42465,54792
42454,54796
42473,54796
42461,54796
42473,54804
42455,54792
42465,54803
42466,54803
42458,54795
42450,54797
42466,54798
42460,54809
42472,54790
42476,54791
42460,54798
42479,54799
42468,54807
42456,54808
42463,54809
42457,54812
42486,54808
42487,54814
42463,54819
42468,54824
42459,54833
42484,54823
42473,54825
42473,54835
42467,54834
42473,54837
42461,54817
42491,54829
42474,54835
42473,54851
42477,54835
42482,54836
42483,54851
42472,54851
42488,54835
42486,54845
42476,54836
42481,54854
42483,54864
42478,54868
42495,54860
42494,54868
42476,54865
42493,54862
42498,54877
42495,54888
42482,54900
42496,54870
42474,54866
42491,54859
42474,54808
42467,54817
42448,54780
42442,54755
42433,54733
42432,54725
42425,54707
42426,54698
42423,54692
42419,54695
42449,54684
42421,54673
42431,54694
42427,54685
42425,54687
42472,54851
42426,54684
42413,54706
42427,54708
42428,54638
42407,54628
42406,54610
42419,54631
42394,54639
42413,54618
42396,54613
42399,54626
42403,54615
42414,54608
42398,54604
42411,54622
42397,54610
42375,54607
42397,54624
42399,54620
42404,54614
42409,54611
42398,54611
42405,54603
42406,54606
42409,54607
42404,54588
42414,54583
42412,54574
42407,54580
42399,54573
42385,54567
42390,54573
42392,54565
42403,54580
42397,54583
42391,54581
42403,54561
42406,54575
42411,54576
42401,54583
42421,54579
42398,54592
42420,54580
42396,54589
42400,54578
42392,54580
42411,54585
42407,54588
42409,54581
42413,54602
42399,54595
42405,54583
42418,54591
42404,54601
42416,54599
42412,54592
42409,54591
42417,54603
42405,54585
42405,54615
42422,54606
42415,54599
42410,54594
42397,54603
42420,54606
42410,54617
42408,54610
42421,54610
42408,54610
42415,54615
42414,54613
42423,54618
42418,54615
42414,54623
42411,54623
42412,54618
42414,54624
42417,54630
42431,54632
42423,54623
42420,54651
42423,54655
42416,54649
42416,54641
42428,54648
42427,54650
42424,54647
42421,54667
42431,54660
42442,54682
42436,54670
42434,54668
42438,54678
42428,54671
42435,54685
42425,54687
42436,54693
42433,54689
42434,54696
42430,54688
42446,54696
42441,54709
42435,54718
42435,54694
42433,54724
42449,54717
42453,54704
42443,54703
42441,54740
42447,54735
42447,54733
42457,54711
42436,54717
42439,54677
42424,54652
42411,54647
42410,54609
42402,54605
42409,54566
42381,54565
42380,54543
42383,54546
42393,54545
42381,54535
42382,54542
42390,54541
42386,54555
42407,54557
42401,54557
42379,54555
42390,54558
42399,54564
42374,54541
42394,54546
42403,54546
42369,54541
42387,54528
42381,54530
42383,54532
42380,54519
42377,54504
42380,54515
42376,54515
42367,54536
42366,54521
42383,54532
42377,54538
42387,54536
42384,54524
42392,54534
42395,54524
42386,54531
42374,54508
42386,54546
42397,54539
42401,54521
42395,54535
42403,54530
42394,54513
42396,54520
42390,54519
42406,54528
42386,54527
42394,54530
42384,54530
42396,54523
42397,54530
42411,54526
42400,54540
42400,54539
42408,54556
42393,54558
42396,54548
42400,54556
42408,54565
42408,54555
42411,54568
42407,54556
42410,54571
42389,54568
42410,54573
42393,54584
42398,54575
42414,54568
42396,54576
42406,54581
42404,54566
42407,54577
42413,54574
42399,54573
42409,54592
42422,54592
42408,54593
42413,54591
42404,54599
42420,54597
42407,54602
42400,54602
42415,54618
42418,54611
42409,54623
42409,54605
42413,54625
42405,54624
42420,54625
42424,54622
42421,54633
42424,54641
42431,54641
42444,54636
42419,54643
42438,54627
42418,54637
42434,54645
42427,54662
42438,54635
42428,54645
42433,54672
42437,54666
42443,54670
42435,54672
42432,54686
42427,54681
42437,54673
42422,54680
42452,54667
42443,54693
42439,54697
42433,54682
42442,54699
42449,54710
42444,54705
42462,54714
42437,54705
42435,54724
42438,54695
42442,54694
42429,54679
42419,54657
42399,54577
42403,54600
42409,54597
42405,54588
42393,54569
42399,54585
42398,54567
42384,54574
42392,54580
42402,54581
42422,54580
42404,54577
42419,54586
42415,54587
42411,54607
42402,54615
42403,54574
42406,54546
42404,54544
42393,54578
42400,54569
42404,54564
42399,54561
42405,54567
42398,54557
42399,54574
42416,54576
42426,54575
42432,54588
42409,54580
42376,54600
42376,54600
42402,54577
42408,54608
42420,54611
42406,54591
42428,54593
42409,54590
42405,54594
42414,54583
42395,54590
42424,54595
42401,54578
42420,54596
42421,54604
42419,54598
42410,54600
42417,54610
42429,54595
42424,54606
42421,54617
42418,54629
42427,54615
42421,54625
42432,54615
42423,54626
42419,54627
42422,54632
42427,54632
42430,54661
42431,54651
42433,54650
42427,54650
42446,54655
42437,54657
42426,54655
42438,54647
42434,54668
42444,54662
42431,54675
42441,54678
42428,54684
42434,54668
42443,54685
42434,54690
42440,54688
42443,54701
42435,54679
42454,54701
42449,54690
42445,54683
42440,54701
42456,54702
42453,54694
42460,54723
42461,54729
42451,54727
42453,54736
42468,54733
42454,54743
42457,54734
42473,54744
42454,54749
42472,54746
42472,54754
42462,54769
42471,54748
42469,54772
42454,54760
42450,54771
42473,54785
42473,54777
42477,54787
42472,54781
42477,54784
42485,54792
42496,54793
42473,54787
42475,54793
42477,54802
42472,54798
42476,54818
42479,54808
42478,54827
42493,54813
42492,54819
42481,54823
42485,54825
42478,54851
42490,54857
42481,54849
42486,54851
42496,54839
42513,54853
42483,54847
42473,54820
42473,54803
42469,54796
42461,54771
42461,54760
42466,54737
42457,54737
42442,54751
42454,54743
42454,54745
42463,54749
42460,54747
42479,54744
42470,54770
42465,54755
42471,54762
42463,54768
42465,54763
42476,54780
42485,54774
42474,54768
42453,54764
42482,54763
42465,54751
42459,54752
42469,54751
42481,54764
42463,54752
42472,54758
42458,54755
42456,54773
42464,54773
42461,54776
42466,54787
42479,54785
42484,54791
42471,54791
42483,54806
42470,54784
42470,54777
42482,54808
42480,54775
42477,54794
42475,54791
42473,54800
42470,54785
42496,54792
42472,54801
42476,54802
42489,54802
42471,54797
42487,54803
42483,54809
42498,54810
42484,54803
42481,54810
42475,54820
42477,54829
42489,54821
42502,54827
42494,54837
42497,54844
42510,54847
42491,54840
42492,54840
42501,54845
42501,54858
42508,54862
42501,54859
42519,54872
42508,54873
42510,54863
42501,54881
42504,54873
42507,54891
42506,54885
42507,54883
42508,54887
42512,54892
42519,54883
42526,54881
42521,54900
42525,54913
42521,54912
42505,54902
42536,54909
42510,54929
42535,54934
42518,54922
42517,54932
42535,54934
42528,54918
42511,54932
42526,54940
42526,54951
42528,54948
42525,54940
42527,54944
42529,54955
42535,54952
42526,54956
42548,54952
42526,54969
42530,54970
42530,54982
42538,54972
42523,54985
42530,54991
42553,54986
42525,54997
42537,54998
42550,54993
42558,55011
42539,54995
42553,55001
42531,55020
42550,55010
42559,55008
42542,55008
42555,55023
42560,55013
42550,55023
42558,55024
42547,55029
42546,55031
42555,55046
42541,55040
42547,55068
42562,55063
42563,55052
42552,55002
42528,55029
42539,55021
42538,54987
42535,54973
42532,54966
42520,54950
42502,54956
42519,54932
42516,54931
42551,54923
42523,54941
42519,54946
42529,54929
42542,54948
42536,54983
42521,54988
42540,54965
42505,54926
42515,54961
42528,54944
42525,54960
42521,54945
42531,54940
42523,54943
42517,54946
42522,54937
42505,54925
42521,54932
42506,54943
42520,54938
42491,54937
42552,55002
42508,54942
42526,54951
42512,54933
42537,54935
42524,54960
42528,54937
42517,54944
42527,54951
42536,54946
42508,54941
42522,54940
42519,54935
42500,54941
42507,54938
42516,54939
42519,54937
42505,54949
42526,54936
42516,54947
42512,54945
42514,54936
42530,54952
42521,54949
42525,54967
42526,54958
42517,54954
42514,54951
42532,54950
42524,54952
42518,54950
42532,54965
42522,54967
42525,54977
42528,54967
42534,54981
42512,54969
42526,54979
42538,54978
42541,54991
42532,54979
42533,54979
42534,54983
42518,54977
42521,54978
42531,54987
42536,54991
42542,54992
42532,54988
42534,55003
42518,55007
42531,54997
42523,55014
42543,55015
42543,55004
42553,54999
42543,55020
42541,55017
42540,55004
42539,55015
42544,55023
42533,55012
42554,55038
42539,55022
42523,55037
42539,55044
42546,55040
42550,55047
42544,55030
42546,55045
42545,55023
42534,55039
42546,55061
42568,55055
42556,55059
42547,55058
42552,55057
42542,55054
42558,55055
42554,55062
42552,55064
42560,55069
42549,55072
42553,55100
42550,55085
42571,55075
42563,55099
42561,55080
42567,55096
42560,55091
42571,55106
42568,55105
42568,55109
42563,55103
42540,55068
42545,55062
42540,55043
42530,55022
42524,55004
42517,54984
42512,54981
42519,54950
42502,54963
42518,54951
42519,54935
42522,54946
42521,54965
42504,54948
42503,54957
42517,54963
42514,54965
42515,54946
42508,54961
42517,54964
42521,54935
42507,54940
42509,54934
42502,54931
42518,54910
42515,54915
42495,54906
42499,54902
42484,54908
42484,54871
42496,54897
42503,54895
42501,54884
42494,54909
42501,54891
42502,54915
42497,54893
42503,54906
42505,54889
42498,54913
42505,54883
42495,54881
42501,54879
42501,54895
42493,54884
42495,54871
42492,54888
42505,54887
42500,54877
42493,54871
42496,54860
42500,54896
42521,54870
42494,54876
42501,54874
42497,54885
42510,54884
42490,54867
42498,54886
42498,54894
42507,54891
42509,54888
42518,54887
42515,54901
42519,54900
42508,54903
42497,54897
42508,54907
42517,54909
42510,54900
42508,54910
42518,54905
42518,54917
42519,54910
42509,54920
42510,54901
42513,54917
42518,54903
42516,54925
42533,54921
42511,54925
42508,54934
42536,54935
42521,54919
42508,54938
42549,54922
42522,54934
42538,54957
42528,54947
42527,54952
42530,54937
42529,54962
42538,54948
42534,54950
42535,54952
42546,54959
42523,54944
42526,54961
42542,54949
42538,54953
42525,54956
42525,54945
42524,54959
42532,54944
42533,54964
42536,54943
42538,54960
42523,54980
42532,54960
42537,55004
42549,54979
42540,54980
42547,54993
42536,55004
42534,55015
42558,54986
42541,54995
42558,55005
42534,55010
42545,55022
42541,55044
42543,55022
42558,55029
42547,55027
42559,55022
42560,55025
42548,55033
42550,55034
42559,55047
42547,55050
42548,55043
42558,55060
42554,55049
42547,55059
42555,55028
42537,55019
42541,54996
42528,54975
42523,54967
42528,54945
42515,54944
42505,54922
42519,54929
42505,54906
42500,54951
42522,54948
42524,54947
42503,54921
42525,54947
42520,54905
42529,54943
42509,54957
42512,54950
42511,54938
42513,54945
42514,54944
42498,54915
42521,54922
42506,54930
42525,54912
42514,54941
42461,54934
42548,55043
42517,54918
42505,54937
42510,54923
42500,54939
42512,54932
42521,54950
42513,54938
42511,54931
42510,54934
42500,54934
42517,54956
42498,54932
42505,54938
42513,54936
42519,54925
42506,54942
42513,54937
42493,54934
42497,54934
42498,54918
42511,54945
42501,54941
42496,54945
42516,54940
42505,54939
42503,54940
42524,54951
42513,54947
42503,54957
42507,54964
42519,54958
42511,54949
42506,54969
42518,54956
42511,54966
42506,54969
42533,54977
42511,54981
42521,54979
42526,54980
42508,54962
42520,54973
42509,54972
42508,54986
42516,54976
42518,54976
42523,54986
42516,54983
42530,54991
42527,55001
42519,54984
42509,54985
42520,55004
42512,55005
42521,54999
42520,55002
42527,54986
42532,54999
42527,55006
42527,55014
42529,55009
42526,55022
42527,55023
42536,55030
42535,55021
42532,55026
42528,55024
42521,55019
42531,55041
42537,55024
42526,55042
42522,55046
42526,55045
42529,55048
42512,55043
42530,55040
42522,55059
42532,55048
42539,55053
42521,55053
42512,55045
42513,55017
42511,55006
42512,54976
42488,54972
42484,54959
42486,54922
42482,54939
42487,54937
42490,54921
42494,54925
42482,54936
42494,54943
42490,54941
42478,54924
42496,54938
42485,54941
42492,54947
42472,54924
42480,54944
42492,54943
42486,54930
42491,54925
42481,54919
42476,54920
42473,54920
42477,54915
42474,54908
42483,54905
42479,54916
42477,54902
42485,54902
42475,54923
42478,54924
42478,54920
42474,54914
42489,54942
42481,54919
42488,54915
42472,54922
42490,54925
42473,54936
42484,54925
42481,54923
42473,54929
42483,54912
42471,54930
42477,54912
42493,54932
42460,54927
42486,54918
42504,54913
42483,54910
42469,54926
42483,54927
42476,54920
42470,54942
42471,54933
42475,54929
42478,54934
42487,54941
42478,54941
42471,54953
42474,54939
42490,54942
42482,54957
42491,54945
42490,54940
42474,54960
42494,54958
42494,54946
42494,54964
42493,54951
42490,54974
42494,54972
42494,54960
42503,54949
42482,54972
42477,54974
42492,54964
42500,54963
42487,54974
42495,54981
42495,54978
42500,54989
42497,54980
42504,54980
42502,54989
42486,55007
42496,54988
42488,54989
42511,55001
42502,55005
42499,54994
42491,55003
42513,55006
42507,55011
42495,55008
42511,55011
42507,55018
42511,55022
42497,55023
42496,55018
42503,55034
42498,55033
42511,55025
42498,55044
42522,55038
42521,55024
42500,55041
42516,55055
42513,55036
42513,55042
42516,55058
42523,55042
42506,55063
42514,55064
42513,55081
42523,55060
42514,55079
42529,55077
42530,55061
42511,55083
42541,55074
42523,55086
42525,55092
42520,55102
42524,55099
42522,55088
42524,55099
42520,55109
42529,55114
42534,55099
42524,55085
42531,55075
42504,55054
42505,55048
42498,55024
42504,54996
42490,54990
42485,54979
42481,54943
42482,54978
42497,54979
42511,54978
42492,54978
42492,54993
42489,54990
42490,54999
42502,55008
42488,55006
42541,54993
42488,55004
42505,55008
42505,54997
42473,55007
42486,55011
42477,54969
42476,54937
42492,54938
42498,54966
42497,54952
42484,54973
42475,54977
42491,54989
42494,54989
42486,54994
42503,54986
42514,54974
42520,54997
42500,55001
42476,55000
42477,55003
42477,55004
42496,54987
42496,55003
42494,54994
42499,54987
42502,54984
42487,54990
42489,54998
42494,55006
42492,54998
42494,54991
42499,55003
42494,55014
42497,55015
42484,54992
42502,54991
42505,55008
42492,55013
42497,55016
42509,55020
42510,55028
42519,55032
42509,55032
42505,55035
42504,55045
42494,55023
42505,55032
42508,55046
42511,55039
42505,55033
42508,55036
42492,55048
42494,55060
42509,55060
42505,55057
42508,55052
42521,55064
42508,55047
42530,55050
42529,55070
42498,55077
42524,55073
42500,55066
42512,55070
42518,55057
42539,55066
42511,55076
42515,55080
42511,55068
42520,55082
42526,55087
42527,55087
42537,55092
42524,55092
42520,55099
42534,55093
42519,55093
42526,55102
42527,55105
42521,55097
42543,55102
42530,55111
42522,55117
42534,55109
42526,55122
42529,55131
42539,55119
42530,55129
42535,55133
42538,55130
42529,55137
42543,55143
42541,55137
42531,55143
42550,55138
42537,55152
42543,55141
42533,55147
42523,55162
42532,55176
42547,55153
42540,55153
42536,55158
42529,55177
42526,55139
42540,55127
42513,55089
42513,55098
42503,55081
42511,55061
42491,55053
42497,55045
42512,55047
42519,55053
42499,55062
42506,55052
42503,55069
42517,55069
42507,55074
42529,55059
42505,55074
42502,55074
42518,55064
42520,55062
42522,55061
42508,55079
42499,55061
42500,55058
42498,55041
42495,55056
42495,55051
42509,55045
42503,55067
42504,55046
42495,55066
42508,55074
42522,55064
42512,55078
42517,55067
42518,55072
42484,55078
42514,55071
42502,55089
42512,55073
42491,55086
42509,55048
42505,55066
42494,55078
42505,55069
42508,55075
42491,55076
42517,55069
42497,55070
42506,55072
42511,55077
42514,55083
42509,55090
42497,55063
42508,55077
42513,55081
42515,55076
42527,55081
42506,55096
42507,55086
42518,55102
42509,55115
42520,55096
42514,55114
42518,55110
42502,55096
42507,55114
42522,55115
42518,55100
42518,55105
42522,55098
42512,55127
42517,55115
42510,55119
42514,55129
42508,55135
42519,55126
42523,55121
42524,55124
42518,55134
42522,55134
42526,55138
42526,55146
42530,55138
42525,55128
42510,55149
42528,55140
42523,55143
42511,55137
42522,55142
42524,55148
42516,55161
42532,55150
42526,55164
42525,55172
42529,55167
42523,55165
42534,55167
42516,55178
42535,55168
42524,55181
42523,55176
42538,55164
42556,55169
42544,55165
42547,55201
42531,55192
42530,55199
42555,55191
42533,55180
42531,55209
42528,55184
42528,55173
42514,55156
42514,55142
42503,55133
42508,55108
42494,55085
42501,55092
42486,55077
42511,55078
42510,55102
42488,55092
42489,55081
42492,55095
42504,55106
42493,55092
42502,55100
42504,55085
42499,55092
42498,55094
42494,55094
42490,55090
42499,55085
42484,55068
42487,55081
42474,55057
42490,55072
42474,55043
42483,55053
42475,55066
42481,55055
42482,55057
42490,55054
42481,55065
42495,55089
42502,55076
42495,55088
42501,55064
42471,55078
42496,55080
42481,55078
42477,55096
42491,55069
42483,55043
42491,55042
42485,55047
42483,55061
42475,55078
42473,55080
42478,55063
42469,55071
42498,55072
42488,55074
42502,55079
42474,55076
42454,55073
42453,55078
42482,55079
42478,55078
42480,55082
42483,55098
42490,55089
42494,55073
42499,55096
42502,55095
42491,55095
42496,55092
42499,55123
42500,55111
42481,55104
42486,55093
42495,55096
42494,55106
42500,55114
42491,55099
42483,55103
42485,55117
42490,55091
42492,55128
42488,55106
42487,55117
42499,55106
42494,55098
42509,55131
42482,55120
42499,55132
42502,55135
42491,55133
42511,55136
42497,55162
42489,55147
42502,55137
42496,55150
42509,55164
42500,55154
42491,55152
42501,55154
42500,55155
42492,55147
42503,55153
42505,55171
42502,55151
42502,55171
42522,55168
42519,55169
42515,55173
42499,55180
42501,55191
42521,55186
42513,55186
42500,55178
42518,55208
42526,55213
42512,55187
42520,55181
42522,55218
42514,55208
42522,55222
42521,55222
42510,55221
42539,55229
42514,55213
42508,55238
42522,55225
42536,55232
42535,55232
42529,55241
42514,55217
42531,55227
42527,55236
42525,55241
42533,55237
42552,55235
42520,55249
42540,55248
42512,55224
42514,55219
42512,55199
42514,55175
42502,55157
42490,55124
42509,55124
42492,55122
42494,55099
42503,55120
42484,55111
42485,55116
42498,55118
42494,55136
42493,55118
42490,55128
42484,55123
42492,55129
42496,55125
42485,55122
42493,55123
42487,55114
42498,55107
42490,55111
42491,55106
42480,55103
42474,55093
42476,55082
42474,55088
42489,55077
42464,55091
42482,55079
42468,55099
42470,55097
42479,55094
42481,55105
42485,55089
42463,55100
42482,55095
42481,55106
42462,55087
42478,55098
42483,55093
42472,55080
42479,55091
42473,55098
42476,55083
42478,55092
42484,55097
42478,55093
42485,55080
42480,55094
42482,55082
42484,55089
42476,55082
42480,55096
42480,55107
42473,55100
42481,55098
42473,55098
42469,55107
42472,55104
42476,55112
42481,55105
42472,55097
42474,55103
42490,55096
42478,55113
42479,55100
42485,55110
42477,55116
42485,55100
42475,55101
42469,55113
42476,55115
42474,55096
42482,55116
42465,55114
42481,55104
42466,55118
42472,55124
42483,55130
42478,55129
42486,55127
42477,55129
42482,55135
42476,55130
42474,55128
42477,55133
42493,55138
42487,55135
42488,55143
42491,55138
42488,55152
42494,55127
42485,55138
42476,55142
42494,55141
42488,55145
42495,55148
42494,55155
42489,55161
42485,55160
42486,55142
42481,55159
42505,55168
42476,55156
42508,55168
42480,55173
42496,55168
42491,55183
42484,55190
42500,55187
42508,55189
42500,55199
42494,55188
42483,55207
42486,55200
42499,55192
42495,55183
42505,55192
42508,55191
42510,55207
42502,55197
42500,55175
42474,55153
42479,55152
42472,55116
42468,55087
42444,55072
42442,55076
42448,55073
42446,55058
42453,55050
42443,55062
42454,55066
42443,55053
42455,55051
42464,55059
42442,55043
42435,55073
42445,55061
42466,55060
42457,55026
42437,55069
42433,55032
42439,55039
42441,55045
42439,55030
42432,55014
42428,55010
42426,54998
42415,54998
42461,54995
42437,54993
42429,55012
42431,55009
42425,55030
42445,55037
42433,55003
42426,54983
42429,54982
42444,55011
42436,54989
42439,54999
42428,55001
42412,54982
42437,54978
42421,54979
42443,54985
42448,54980
42442,54984
42410,54984
42406,54971
42404,54981
42408,54978
42413,54984
42427,54996
42430,54979
42418,54995
42431,54982
42420,54984
42430,54999
42431,54990
42433,54989
42444,55000
42423,55009
42426,54982
42429,54996
42427,55003
42412,54991
42427,55003
42436,55017
42428,54998
42418,55001
42432,55013
42434,55015
42437,55010
42432,55010
42433,55004
42441,55008
42448,55007
42440,55017
42440,55010
42434,54991
42432,55007
42433,55008
42432,55013
42435,55020
42427,55015
42431,55020
42430,55024
42448,55022
42450,55049
42434,55032
42455,55046
42452,55020
42450,55033
42442,55039
42437,55037
42440,55025
42444,55039
42447,55043
42445,55048
42470,55052
42469,55046
42446,55075
42445,55062
42442,55060
42468,55085
42457,55080
42473,55077
42467,55084
42458,55084
42468,55080
42449,55091
42451,55092
42457,55083
42455,55091
42458,55094
42472,55103
42474,55090
42467,55104
42480,55100
42467,55109
42490,55115
42474,55131
42486,55128
42480,55126
42474,55123
42482,55133
42478,55138
42498,55136
42476,55141
42489,55120
42476,55108
42476,55093
42478,55086
42463,55063
42435,55030
42429,55029
42438,54990
42446,55008
42431,54984
42427,54985
42436,54996
42433,54983
42434,54981
42444,54990
42437,54994
42448,54995
42455,54992
42452,55002
42442,55021
42452,55001
42442,55000
42436,54986
42440,54974
42437,54988
42438,54987
42437,54989
42437,54970
42442,54961
42435,54974
42439,54969
42450,54989
42445,54966
42443,54981
42442,54984
42450,54982
42436,54983
42438,54983
42436,54992
42457,54990
42447,54993
42451,54995
42434,54978
42449,54974
42445,54984
42433,54998
42435,54965
42431,54970
42431,54975
42428,54968
42431,54973
42450,54968
42443,54976
42436,54962
42431,54990
42425,54979
42452,54976
42442,54982
42428,54990
42455,54991
42441,54995
42439,54976
42451,55001
42435,54996
42441,55011
42440,54996
42448,55000
42434,55005
42452,55003
42452,55007
42452,55011
42446,55004
42451,55009
42463,55012
42434,54998
42447,55009
42439,55006
42437,55014
42459,55026
42458,55009
42447,55015
42453,55020
42460,55032
42462,55010
42451,55025
42455,55027
42462,55031
42447,55028
42458,55032
42473,55019
42466,55038
42450,55031
42461,55044
42457,55058
42449,55056
42462,55051
42464,55045
42457,55047
42459,55070
42471,55061
42469,55050
42458,55065
42462,55073
42463,55075
42470,55080
42458,55069
42474,55075
42479,55066
42479,55085
42465,55091
42471,55087
42475,55088
42480,55117
42464,55090
42466,55089
42467,55109
42466,55091
42480,55112
42478,55094
42476,55098
42479,55093
42466,55065
42449,55040
42453,55019
42440,55010
42441,54991
42420,54973
42440,54964
42432,54959
42423,54951
42441,54962
42425,54964
42421,54960
42433,54976
42437,54981
42432,54989
42434,54975
42441,54971
42424,54976
42441,55023
42439,54981
42429,54949
42435,54968
42427,54957
42430,54954
42440,54946
42426,54968
42416,54954
42431,54938
42418,54936
42428,54936
42434,54942
42427,54958
42434,54961
42449,55040
42446,54970
42424,54979
42432,54992
42429,54953
42434,54945
42425,54932
42435,54947
42435,54953
42426,54943
42436,54950
42430,54944
42428,54947
42433,54957
42431,54955
42458,54935
42431,54948
42408,54936
42439,54981
42438,54941
42424,54956
42437,54961
42437,54957
42445,54959
42433,54965
42449,54948
42435,54976
42443,54976
42440,54970
42428,54980
42433,54976
42440,54990
42435,54997
42439,54989
42441,54979
42445,54980
42446,54976
42437,54965
42452,54984
42446,54982
42447,54988
42453,54978
42451,55000
42439,54985
42443,54987
42454,54987
42465,55001
42441,54994
42425,54994
42435,55005
42435,55007
42451,54986
42445,55005
42452,55013
42448,55016
42447,55022
42462,54988
42460,55016
42441,55030
42453,55029
42456,55035
42464,55031
42478,55033
42459,55053
42445,55040
42458,55039
42466,55044
42464,55042
42454,55040
42466,55046
42447,55035
42473,55052
42461,55049
42455,55059
42470,55069
42470,55064
42481,55071
42467,55066
42460,55070
42473,55078
42477,55072
42455,55086
42474,55076
42471,55082
42476,55091
42473,55085
42480,55094
42472,55107
42484,55093
42478,55112
42468,55110
42482,55103
42478,55099
42485,55120
42466,55090
42469,55100
42449,55062
42457,55046
42451,55031
42447,55019
42447,54987
42440,54990
42444,54987
42436,54989
42438,54960
42440,54956
42432,54961
42431,54974
42438,54963
42446,54998
42442,54988
42452,54985
42463,54976
42445,54984
42451,54975
42422,54979
42438,54977
42449,54961
42440,54971
42431,54967
42430,54963
42434,54962
42435,54962
42425,54947
42429,54955
42428,54951
42439,54946
42442,54946
42442,54950
42429,54961
42433,54972
42441,54966
42448,54964
42430,54970
42437,54961
42446,54955
42436,54974
42429,54975
42441,54973
42440,54952
42442,54965
42445,54958
42449,54946
42431,54961
42432,54968
42435,54960
42449,54969
42449,54976
42430,54970
42437,54970
42440,54974
42430,54969
42452,54982
42440,54978
42442,54974
42450,54977
42450,54998
42459,54988
42457,54972
42456,54988
42446,54985
42450,54980
42462,54987
42448,54984
42463,54996
42456,54997
42463,54998
42452,55008
42462,55012
42458,54989
42456,55010
42448,55013
42465,55012
42456,55007
42465,55015
42457,55024
42471,55022
42467,55035
42465,55013
42472,55017
42471,55009
42473,55019
42465,55032
42458,55018
42455,55029
42470,55038
42471,55042
42459,55031
42464,55043
42458,55039
42482,55045
42459,55038
42474,55042
42463,55042
42470,55051
42467,55058
42486,55066
42470,55049
42475,55068
42492,55070
42480,55073
42477,55076
42490,55071
42498,55090
42477,55075
42483,55082
42482,55088
42493,55089
42495,55101
42501,55099
42499,55080
42495,55110
42503,55106
42494,55109
42499,55129
42507,55121
42501,55136
42504,55135
42513,55127
42513,55142
42516,55133
42523,55120
42488,55087
42483,55083
42481,55059
42481,55054
42465,55010
42472,55018
42465,54997
42460,55002
42462,55012
42458,54999
42464,55007
42470,55014
42484,55015
42492,55054
42500,55023
42478,55042
42493,55032
42481,55026
42474,55037
42493,55046
42466,55028
42485,55033
42466,55029
42467,55035
42469,55030
42481,55016
42458,55013
42457,55010
42446,55026
42468,55010
42466,55031
42471,55046
42467,55046
42475,55008
42463,55003
42479,55005
42472,55015
42481,55019
42473,55016
42468,55034
42475,55024
42472,55021
42472,55029
42496,55028
42513,55020
42463,55022
42451,55018
42477,55035
42465,55019
42464,55038
42474,55011
42471,55025
42460,55037
42486,55021
42461,55056
42484,55036
42469,55040
42472,55039
42482,55047
42475,55055
42481,55047
42469,55039
42460,55052
42474,55052
42475,55045
42477,55064
42472,55055
42481,55070
42481,55062
42479,55061
42471,55063
42479,55065
42485,55064
42487,55062
42475,55075
42473,55065
42472,55074
42493,55088
42487,55081
42475,55086
42481,55089
42494,55091
42485,55083
42483,55088
42478,55088
42490,55102
42491,55086
42481,55085
42488,55098
42483,55102
42476,55104
42484,55111
42491,55124
42493,55109
42490,55103
42483,55127
42479,55128
42486,55110
42496,55119
42490,55114
42491,55112
42489,55110
42467,55100
42469,55122
42472,55107
42477,55120
42477,55125
42476,55116
42475,55120
42470,55126
42480,55110
42482,55103
42453,55120
42456,55115
42452,55117
42441,55102
42436,55127
42451,55120
42464,55125
42453,55113
42455,55128
42482,55126
42461,55127
42461,55137
42462,55097
42464,55081
42457,55079
42451,55079
42445,55057
42438,55050
42444,55005
42428,55034
42442,55020
42429,55014
42435,55014
42431,55016
42440,55021
42432,55016
42440,55029
42428,55027
42421,55049
42446,55051
42441,55043
42435,55029
42440,55047
42457,55032
42450,55030
42441,55019
42448,55027
42457,55025
42431,55008
42442,55015
42428,55026
42423,55007
42439,55016
42434,55013
42448,55033
42446,55010
42451,55011
42445,55030
42451,55033
42441,55022
42441,55036
42441,55021
42447,55030
42441,55024
42444,55010
42448,55014
42428,55026
42430,55015
42438,55009
42440,55012
42442,55030
42445,55029
42436,55013
42434,55013
42447,55029
42436,55024
42443,55026
42445,55020
42443,55032
42455,55042
42454,55029
42441,55044
42438,55051
42462,55038
42453,55056
42444,55037
42466,55047
42449,55056
42457,55053
42453,55051
42447,55053
42461,55050
42460,55056
42456,55051
42449,55055
42450,55064
42452,55062
42452,55065
42444,55054
42463,55066
42457,55080
42465,55079
42441,55070
42463,55076
42453,55085
42456,55077
42468,55096
42468,55093
42469,55083
42460,55081
42468,55098
42467,55102
42461,55086
42465,55101
42463,55116
42465,55094
42463,55102
42480,55108
42471,55110
42475,55116
42471,55120
42469,55118
42488,55119
42472,55115
42482,55126
42482,55118
42484,55123
42494,55134
42488,55128
42486,55138
42480,55155
42469,55139
42484,55149
42480,55156
42486,55163
42484,55146
42485,55163
42492,55154
42490,55151
42480,55156
42483,55163
42484,55176
42485,55167
42492,55169
42492,55164
42493,55159
42470,55148
42462,55117
42458,55099
42443,55055
42453,55055
42452,55053
42441,55041
42441,55037
42442,55029
42430,55015
42437,55022
42444,55035
42439,55030
42431,55033
42434,55025
42432,55042
42455,55046
42443,55014
42436,55020
42444,55045
42442,55009
42440,55024
42426,54999
42428,55014
42436,55004
42427,54994
42419,54998
42412,54997
42418,54994
42443,54994
42454,54987
42430,54986
42425,55008
42427,54993
42418,54985
42434,54996
42424,55021
42416,54988
42427,54967
42427,54988
42412,54960
42435,54979
42414,54964
42410,54974
42411,54975
42428,54979
42438,54982
42443,54982
42449,54993
42434,54994
42441,54999
42416,54991
42417,54989
42435,54997
42440,55006
42442,54991
42440,54995
42442,55010
42444,55008
42439,55018
42447,55027
42424,55009
42437,55010
42431,55012
42421,55008
42450,54998
42440,55001
42438,55007
42443,55005
42437,54999
42442,55002
42424,54992
42427,55003
42452,55011
42440,54999
42438,55018
42439,54990
42443,55017
42426,55000
42435,55006
42456,55003
42431,55010
42430,55026
42454,55012
42438,55013
42434,55019
42428,55013
42440,55028
42447,55024
42443,55012
42447,55021
42445,55029
42432,55017
42449,55016
42442,55027
42450,55033
42444,55033
42448,55027
42466,55051
42454,55035
42447,55043
42445,55060
42438,55055
42447,55041
42445,55047
42439,55035
42453,55058
42461,55051
42460,55064
42455,55053
42449,55053
42467,55075
42455,55061
42450,55062
42442,55045
42434,55026
42443,55023
42429,54997
42403,54964
42415,54959
42413,54926
42404,54922
42403,54912
42394,54901
42398,54899
42394,54894
42380,54890
42403,54899
42407,54901
42400,54900
42395,54901
42404,54881
42387,54902
42390,54889
42393,54884
42399,54889
42399,54881
42395,54867
42389,54860
42384,54853
42387,54826
42387,54836
42394,54840
42377,54829
42373,54828
42381,54826
42383,54822
42381,54845
42387,54824
42386,54831
42398,54833
42388,54828
42384,54820
42379,54820
42380,54827
42385,54825
42382,54816
42371,54819
42387,54812
42391,54816
42372,54805
42372,54808
42376,54788
42380,54787
42363,54794
42375,54804
42382,54802
42388,54785
42363,54801
42381,54801
42374,54787
42380,54793
42375,54809
42368,54810
42379,54800
42382,54804
42374,54811
42385,54819
42377,54821
42384,54797
42378,54821
42387,54809
42389,54822
42383,54812
42374,54813
42376,54817
42377,54823
42382,54816
42381,54789
42383,54818
42393,54813
42395,54819
42393,54802
42400,54832
42394,54822
42380,54829
42393,54812
42391,54820
42398,54823
42408,54835
42391,54858
42398,54841
42403,54845
42413,54844
42413,54840
42413,54843
42402,54842
42412,54853
42398,54845
42422,54863
42406,54861
42414,54854
42413,54863
42417,54863
42426,54871
42402,54871
42408,54873
42419,54874
42409,54869
42420,54872
42413,54880
42436,54886
42426,54901
42433,54892
42420,54904
42437,54881
42418,54906
42429,54895
42434,54889
42416,54902
42432,54908
42440,54916
42440,54914
42444,54909
42446,54932
42450,54927
42441,54925
42439,54939
42451,54927
42450,54947
42440,54944
42444,54940
42433,54945
42444,54944
42455,54950
42449,54945
42450,54942
42433,54912
42424,54889
42421,54868
42413,54862
42409,54843
42384,54814
42381,54819
42399,54802
42388,54785
42398,54778
42392,54772
42386,54798
42399,54793
42399,54783
42414,54783
42395,54788
42392,54792
42398,54784
42401,54779
42399,54775
42404,54791
42392,54777
42401,54783
42387,54758
42387,54765
42385,54763
42383,54762
42377,54754
42389,54743
42406,54764
42390,54763
42394,54764
42399,54770
42404,54757
42389,54760
42395,54751
42384,54763
42392,54755
42372,54757
42396,54745
42381,54767
42375,54763
42374,54754
42378,54696
42377,54703
42376,54701
42381,54716
42395,54717
42385,54724
42385,54727
42386,54726
42372,54738
42386,54733
42404,54733
42415,54723
42394,54720
42368,54735
42402,54739
42361,54733
42394,54723
42377,54747
42389,54745
42385,54744
42396,54753
42392,54739
42406,54741
42398,54747
42388,54745
42380,54745
42401,54753
42390,54757
42384,54751
42383,54751
42388,54738
42391,54739
42386,54738
42392,54748
42384,54763
42381,54773
42396,54765
42393,54764
42374,54752
42394,54758
42397,54760
42400,54760
42388,54778
42384,54766
42394,54751
42401,54778
42379,54767
42410,54791
42408,54779
42407,54775
42395,54764
42411,54768
42396,54782
42401,54777
42410,54775
42394,54791
42423,54782
42401,54794
42406,54791
42407,54780
42408,54789
42411,54790
42405,54803
42393,54806
42408,54818
42402,54822
42407,54825
42410,54812
42424,54818
42403,54822
42399,54833
42410,54841
42404,54831
42408,54830
42414,54849
42424,54829
42412,54836
42432,54834
42423,54853
42411,54842
42420,54859
42412,54851
42430,54854
42415,54845
42422,54843
42424,54821
42394,54812
42400,54789
42409,54768
42382,54731
42388,54728
42368,54713
42371,54708
42360,54687
42364,54680
42352,54682
42363,54691
42377,54678
42369,54684
42348,54682
42366,54678
42374,54691
42378,54665
42364,54684
42366,54674
42373,54668
42346,54647
42376,54642
42360,54637
42359,54641
42351,54627
42349,54624
42360,54628
42358,54613
42348,54619
42341,54618
42355,54612
42354,54600
42335,54601
42356,54608
42350,54630
42348,54613
42377,54618
42349,54613
42356,54607
42346,54604
42361,54618
42348,54595
42338,54581
42344,54580
42354,54589
42341,54593
42343,54587
42339,54583
42358,54580
42346,54588
42357,54589
42356,54591
42347,54592
42357,54591
42354,54610
42344,54586
42352,54597
42363,54597
42354,54601
42351,54606
42367,54616
42358,54596
42356,54609
42346,54604
42367,54607
42372,54603
42365,54604
42366,54608
42353,54612
42377,54603
42367,54628
42376,54626
42361,54619
42372,54636
42378,54625
42362,54611
42372,54621
42380,54630
42373,54650
42380,54646
42378,54641
42387,54642
42390,54645
42378,54636
42386,54655
42394,54655
42381,54657
42384,54644
42393,54653
42379,54661
42376,54645
42380,54658
42371,54656
42393,54655
42380,54658
42389,54633
42375,54672
42381,54659
42388,54661
42391,54663
42391,54682
42375,54684
42390,54683
42389,54694
42394,54685
42382,54686
42388,54691
42391,54690
42385,54703
42389,54697
42387,54686
42385,54696
42392,54695
42373,54707
42391,54709
42399,54714
42395,54713
42400,54714
42393,54713
42395,54734
42397,54727
42394,54739
42381,54731
42403,54741
42401,54754
42407,54727
42418,54741
42404,54742
42407,54743
42404,54755
42409,54758
42400,54771
42402,54765
42394,54765
42400,54763
42398,54774
42408,54762
42409,54761
42403,54754
42381,54721
42381,54696
42375,54684
42361,54654
42354,54623
42356,54622
42349,54598
42349,54597
42349,54582
42346,54568
42343,54581
42344,54578
42345,54582
42356,54576
42342,54575
42355,54561
42351,54580
42355,54587
42357,54582
42336,54578
42347,54567
42352,54574
42358,54553
42332,54534
42348,54541
42347,54543
42328,54530
42331,54535
42334,54534
42326,54534
42331,54558
42330,54568
42328,54524
42333,54505
42341,54537
42335,54512
42337,54538
42332,54535
42332,54524
42334,54512
42334,54515
42338,54505
42340,54514
42351,54518
42320,54522
42338,54507
42301,54513
42355,54561
42320,54502
42328,54493
42323,54496
42326,54512
42344,54507
42335,54513
42339,54523
42332,54518
42324,54521
42325,54532
42340,54531
42343,54516
42334,54522
42329,54511
42330,54525
42338,54536
42333,54530
42349,54536
42338,54528
42323,54524
42338,54525
42335,54529
42342,54546
42337,54535
42348,54539
42326,54541
42339,54548
42336,54544
42345,54531
42346,54546
42347,54547
42341,54543
42341,54537
42355,54531
42349,54560
42344,54560
42334,54557
42340,54561
42354,54546
42333,54557
42342,54554
42341,54561
42335,54577
42345,54568
42341,54562
42329,54579
42348,54581
42348,54584
42356,54581
42348,54573
42339,54580
42354,54607
42354,54597
42347,54589
42349,54591
42352,54609
42338,54607
42343,54602
42351,54607
42351,54609
42366,54607
42366,54632
42352,54619
42362,54630
42367,54634
42353,54629
42365,54642
42360,54640
42361,54642
42371,54645
42365,54640
42360,54638
42351,54638
42343,54599
42349,54594
42335,54557
42326,54533
42303,54518
42309,54508
42308,54483
42310,54471
42306,54455
42309,54465
42305,54466
42300,54469
42306,54455
42304,54476
42303,54458
42313,54484
42315,54470
42312,54464
42302,54466
42308,54455
42294,54435
42305,54455
42310,54443
42311,54435
42294,54425
42282,54405
42293,54418
42285,54417
42289,54393
42284,54413
42281,54417
42296,54415
42286,54422
42294,54409
42295,54407
42293,54419
42297,54422
42291,54400
42285,54412
42284,54412
42296,54416
42282,54398
42290,54386
42289,54395
42293,54398
42277,54397
42278,54397
42260,54381
42278,54390
42273,54376
42289,54380
42260,54387
42276,54385
42296,54412
42274,54387
42281,54396
42279,54405
42285,54393
42287,54387
42296,54408
42297,54400
42297,54411
42275,54409
42297,54412
42286,54422
42293,54411
42277,54424
42283,54418
42291,54417
42272,54421
42290,54406
42299,54422
42288,54419
42282,54418
42296,54410
42286,54420
42296,54424
42295,54440
42286,54417
42288,54424
42299,54440
42278,54452
42277,54423
42286,54429
42306,54442
42296,54450
42285,54445
42286,54446
42286,54456
42292,54443
42301,54453
42298,54471
42301,54445
42290,54466
42298,54464
42300,54472
42301,54459
42296,54477
42303,54473
42309,54487
42299,54467
42286,54470
42304,54481
42305,54504
42297,54506
42307,54504
42299,54500
42312,54511
42298,54515
42306,54510
42315,54521
42300,54506
42320,54534
42320,54527
42314,54547
42329,54539
42310,54545
42321,54544
42320,54541
42317,54555
42317,54550
42306,54559
42319,54549
42319,54570
42331,54565
42320,54573
42343,54585
42325,54590
42321,54584
42345,54573
42335,54594
42329,54589
42331,54595
42326,54594
42324,54610
42328,54598
42318,54594
42325,54567
42315,54552
42289,54527
42292,54495
42285,54467
42279,54453
42278,54442
42289,54447
42273,54440
42284,54434
42292,54441
42280,54440
42291,54409
42290,54439
42271,54456
42297,54451
42292,54444
42278,54451
42304,54428
42286,54451
42280,54455
42284,54428
42300,54420
42296,54431
42281,54415
42275,54408
42293,54400
42284,54439
42300,54430
42295,54414
42299,54384
42284,54419
42275,54389
42296,54422
42292,54421
42303,54431
42288,54420
42291,54424
42292,54419
42326,54409
42313,54419
42284,54410
42279,54413
42264,54434
42270,54412
42270,54401
42280,54408
42285,54419
42295,54429
42286,54421
42296,54411
42285,54411
42296,54422
42291,54410
42284,54415
42281,54420
42292,54417
42285,54418
42287,54428
42291,54438
42296,54430
42292,54455
42297,54444
42297,54448
42303,54460
42303,54453
42291,54454
42294,54461
42307,54449
42299,54448
42299,54458
42291,54463
42300,54468
42300,54459
42296,54471
42299,54471
42307,54467
42307,54488
42310,54464
42311,54483
42301,54492
42314,54486
42298,54484
42316,54474
42313,54488
42309,54491
42314,54492
42306,54491
42308,54486
42290,54499
42322,54512
42317,54504
42322,54514
42315,54515
42311,54519
42320,54526
42307,54522
42323,54527
42320,54538
42308,54528
42313,54544
42323,54553
42332,54542
42305,54562
42319,54548
42336,54553
42321,54559
42326,54546
42326,54579
42329,54557
42322,54569
42321,54589
42325,54569
42326,54587
42329,54599
42336,54587
42331,54581
42332,54585
42323,54588
42317,54563
42300,54540
42307,54528
42303,54506
42286,54502
42292,54477
42298,54475
42278,54473
42273,54459
42296,54472
42277,54464
42286,54462
42285,54468
42304,54494
42279,54493
42292,54476
42297,54485
42289,54480
42294,54481
42301,54483
42286,54467
42298,54462
42294,54475
42283,54466
42290,54456
42281,54474
42280,54458
42276,54456
42281,54451
42290,54471
42302,54460
42272,54468
42306,54470
42302,54495
42282,54497
42298,54491
42302,54493
42304,54480
42304,54483
42303,54483
42282,54484
42293,54472
42297,54477
42277,54481
42296,54474
42288,54487
42296,54479
42305,54490
42284,54472
42295,54474
42297,54477
42284,54500
42296,54499
42290,54502
42305,54499
42288,54498
42304,54514
42301,54505
42299,54509
42297,54510
42297,54496
42298,54509
42289,54516
42287,54507
42291,54505
42282,54499
42298,54495
42292,54507
42280,54520
42281,54511
42295,54517
42281,54521
42302,54527
42291,54524
42303,54522
42303,54538
42313,54537
42304,54544
42285,54555
42296,54555
42308,54550
42311,54556
42302,54569
42315,54561
42326,54554
42309,54587
42307,54581
42313,54565
42323,54595
42318,54589
42322,54581
42330,54597
42326,54594
42325,54586
42337,54605
42317,54607
42330,54621
42336,54621
42339,54626
42346,54622
42323,54609
42339,54626
42337,54626
42341,54658
42348,54641
42336,54626
42337,54656
42344,54646
42350,54655
42343,54667
42369,54678
42358,54666
42347,54679
42352,54679
42349,54690
42374,54685
42359,54691
42362,54696
42364,54698
42354,54695
42369,54714
42366,54718
42349,54711
42363,54716
42363,54707
42356,54705
42349,54711
42381,54702
42351,54683
42350,54673
42333,54648
42327,54621
42325,54624
42320,54613
42335,54603
42336,54603
42329,54613
42333,54586
42317,54599
42330,54590
42331,54605
42334,54594
42344,54625
42343,54614
42346,54626
42335,54622
42340,54621
42333,54598
42326,54583
42321,54596
42324,54606
42327,54613
42314,54588
42312,54594
42324,54593
42318,54594
42335,54607
42342,54605
42336,54599
42341,54612
42340,54614
42356,54607
42326,54614
42327,54621
42322,54648
42354,54659
42329,54637
42344,54608
42345,54590
42344,54611
42330,54628
42324,54610
42340,54629
42343,54615
42351,54627
42342,54620
42354,54630
42325,54628
42348,54633
42337,54621
42298,54628
42320,54648
42345,54647
42355,54649
42339,54648
42340,54651
42348,54655
42354,54654
42369,54674
42356,54681
42361,54665
42353,54677
42344,54675
42360,54689
42355,54678
42361,54683
42387,54687
42373,54694
42370,54680
42367,54700
42364,54698
42362,54695
42380,54700
42353,54724
42373,54697
42385,54713
42370,54721
42370,54702
42374,54730
42378,54725
42384,54734
42390,54733
42387,54732
42382,54723
42380,54737
42394,54744
42386,54757
42374,54755
42388,54752
42394,54767
42376,54762
42385,54771
42380,54771
42417,54767
42400,54771
42392,54784
42409,54790
42415,54780
42407,54770
42403,54811
42395,54795
42404,54781
42406,54806
42402,54799
42399,54820
42401,54819
42410,54824
42412,54820
42410,54839
42411,54823
42414,54829
42410,54827
42414,54839
42413,54836
42415,54845
42424,54831
42433,54859
42435,54848
42421,54860
42417,54859
42431,54867
42436,54879
42428,54882
42416,54862
42409,54846
42409,54826
42409,54817
42399,54808
42405,54785
42405,54780
42395,54759
42396,54765
42396,54769
42398,54776
42397,54786
42391,54771
42407,54796
42406,54789
42399,54803
42416,54800
42401,54816
42416,54827
42410,54823
42417,54825
42423,54806
42403,54814
42407,54817
42431,54802
42406,54815
42410,54808
42406,54803
42401,54822
42425,54808
42407,54830
42408,54828
42409,54825
42424,54838
42427,54847
42428,54846
42417,54828
42435,54847
42434,54834
42420,54848
42398,54830
42426,54852
42419,54848
42424,54856
42418,54839
42414,54862
42437,54860
42424,54846
42432,54859
42433,54865
42427,54861
42429,54862
42438,54888
42442,54871
42426,54876
42442,54872
42433,54890
42435,54889
42442,54906
42441,54894
42440,54911
42440,54913
42441,54915
42447,54909
42452,54924
42454,54924
42455,54923
42454,54928
42438,54918
42463,54937
42460,54941
42449,54953
42482,54936
42457,54942
42457,54952
42465,54945
42463,54956
42480,54943
42459,54950
42450,54969
42470,54963
42461,54955
42454,54988
42462,54973
42463,54961
42456,54970
42470,54986
42479,54987
42463,54978
42464,54985
42468,55007
42476,55001
42478,55007
42462,55013
42475,55016
42476,55016
42487,55021
42500,55028
42485,55012
42474,55026
42461,55003
42478,54977
42460,54969
42454,54965
42464,54954
42448,54948
42453,54929
42440,54938
42457,54956
42455,54959
42469,54964
42461,54970
42457,54982
42455,54989
42465,54988
42466,54991
42476,54986
42481,54983
42468,54980
42476,54977
42480,54988
42471,54985
42474,54976
42459,54992
42481,54972
42482,54973
42458,54975
42461,54978
42477,54998
42480,55010
42465,54995
42470,54996
42490,55021
42466,55020
42492,55026
42487,55043
42480,55020
42494,55028
42501,55039
42471,55025
42487,55027
42499,55042
42492,55028
42491,55017
42495,55040
42485,55033
42500,55052
42484,55061
42494,55056
42492,55047
42486,55089
42491,55074
42501,55065
42494,55067
42507,55087
42501,55089
42495,55078
42512,55072
42512,55086
42499,55084
42509,55086
42517,55092
42508,55110
42509,55115
42524,55116
42486,55114
42529,55123
42507,55138
42502,55136
42514,55141
42510,55087
42526,55107
42531,55125
42519,55138
42527,55124
42517,55151
42520,55136
42522,55158
42533,55152
42530,55149
42554,55130
42551,55158
42528,55168
42494,55145
42542,55181
42525,55180
42540,55178
42559,55178
42543,55200
42544,55199
42533,55195
42530,55203
42552,55201
42540,55208
42541,55208
42549,55213
42547,55222
42549,55214
42551,55226
42550,55231
42547,55234
42555,55233
42550,55234
42546,55242
42551,55237
42567,55237
42565,55250
42560,55256
42559,55257
42582,55257
42562,55254
42554,55263
42565,55266
42571,55258
42548,55271
42568,55284
42580,55271
42570,55272
42582,55283
42583,55290
42571,55290
42576,55298
42576,55297
42590,55317
42600,55331
42588,55319
42598,55315
42583,55330
42591,55307
42601,55331
42598,55330
42577,55329
42592,55321
42595,55335
42608,55342
42595,55345
42587,55339
42584,55328
42581,55303
42575,55292
42567,55275
42575,55267
42567,55266
42564,55259
42559,55243
42563,55253
42567,55254
42576,55264
42582,55284
42581,55291
42591,55297
42585,55312
42587,55303
42599,55324
42584,55306
42591,55318
42592,55321
42587,55311
42598,55319
42593,55314
42594,55316
42582,55304
42596,55311
42593,55324
42586,55308
42579,55303
42581,55315
42607,55316
42584,55327
42600,55318
42621,55338
42596,55351
42602,55345
42606,55356
42611,55350
42605,55339
42613,55362
42599,55363
42619,55342
42590,55353
42594,55367
42610,55342
42606,55359
42602,55351
42609,55359
42612,55345
42601,55357
42607,55346
42612,55368
42620,55364
42604,55371
42624,55390
42601,55390
42622,55370
42612,55396
42626,55399
42612,55397
42616,55383
42609,55394
42605,55398
42612,55394
42616,55402
42611,55415
42625,55402
42622,55406
42614,55408
42629,55409
42604,55417
42630,55424
42627,55421
42622,55412
42625,55427
42615,55420
42614,55429
42633,55434
42628,55434
42634,55436
42627,55435
42625,55443
42639,55443
42625,55443
42631,55437
42650,55448
42633,55459
42628,55452
42633,55469
42627,55454
42625,55467
42632,55458
42631,55463
42634,55473
42647,55480
42647,55461
42643,55491
42640,55469
42632,55480
42648,55500
42637,55483
42639,55474
42641,55481
42626,55494
42634,55487
42647,55482
42650,55493
42653,55508
42649,55503
42649,55521
42647,55498
42646,55503
42645,55519
42666,55521
42659,55531
42640,55525
42659,55525
42651,55538
42657,55528
42654,55525
42667,55530
42656,55534
42644,55540
42651,55513
42637,55530
42628,55490
42637,55492
42633,55461
42639,55453
42618,55457
42618,55441
42616,55432
42628,55450
42617,55418
42625,55437
42627,55451
42622,55459
42628,55471
42634,55457
42634,55470
42640,55471
42640,55475
42640,55479
42638,55478
42641,55478
42635,55467
42631,55467
42625,55476
42628,55446
42623,55460
42627,55446
42632,55458
42623,55457
42627,55472
42631,55451
42631,55474
42639,55481
42638,55477
42624,55474
42640,55482
42638,55490
42631,55483
42636,55485
42617,55485
42633,55465
42636,55474
42621,55499
42638,55458
42632,55479
42632,55471
42627,55478
42622,55485
42626,55465
42629,55483
42639,55492
42642,55480
42656,55492
42641,55500
42644,55509
42638,55513
42625,55488
42638,55509
42647,55507
42609,55510
42630,55499
42641,55519
42650,55529
42639,55536
42654,55489
42644,55493
42652,55501
42641,55523
42637,55518
42643,55522
42644,55528
42644,55518
42645,55528
42650,55530
42681,55524
42663,55537
42627,55528
42608,55531
42635,55540
42629,55537
42656,55547
42636,55546
42643,55535
42660,55546
42646,55555
42654,55547
42641,55561
42647,55555
42643,55559
42647,55561
42643,55568
42640,55556
42650,55558
42646,55561
42648,55568
42644,55562
42646,55569
42651,55554
42653,55573
42639,55580
42654,55579
42662,55573
42651,55581
42644,55584
42652,55584
42656,55596
42649,55597
42653,55599
42660,55605
42670,55604
42659,55605
42651,55615
42661,55616
42678,55601
42667,55603
42671,55611
42680,55609
42663,55604
42669,55617
42675,55616
42651,55632
42660,55631
42658,55625
42657,55624
42664,55626
42668,55626
42675,55634
42676,55628
42669,55633
42658,55637
42669,55633
42683,55656
42673,55654
42676,55658
42660,55655
42675,55661
42670,55646
42678,55662
42670,55654
42661,55637
42662,55618
42659,55597
42656,55613
42644,55572
42640,55549
42640,55547
42633,55536
42630,55535
42632,55531
42643,55545
42637,55542
42633,55539
42637,55562
42646,55555
42639,55552
42662,55564
42646,55551
42661,55547
42638,55538
42626,55558
42630,55520
42646,55545
42630,55556
42634,55532
42630,55531
42628,55525
42632,55512
42623,55519
42620,55527
42628,55530
42620,55536
42636,55521
42629,55543
42632,55539
42635,55548
42631,55542
42650,55539
42622,55537
42636,55539
42627,55533
42626,55531
42623,55541
42627,55530
42620,55531
42625,55508
42615,55527
42609,55532
42620,55514
42624,55529
42614,55527
42611,55545
42622,55540
42624,55539
42613,55527
42607,55532
42630,55540
42626,55539
42621,55546
42637,55542
42611,55554
42605,55548
42605,55534
42621,55551
42618,55540
42609,55544
42613,55551
42630,55554
42613,55549
42622,55554
42612,55547
42612,55544
42627,55556
42609,55548
42612,55555
42620,55555
42617,55563
42609,55563
42617,55556
42647,55546
42611,55546
42629,55569
42630,55559
42632,55562
42603,55560
42623,55567
42628,55567
42623,55571
42617,55575
42615,55577
42615,55580
42631,55591
42617,55562
42628,55579
42617,55579
42622,55574
42622,55591
42603,55589
42620,55572
42617,55583
42606,55589
42604,55589
42612,55588
42601,55594
42626,55592
42635,55601
42614,55582
42619,55604
42621,55594
42630,55598
42624,55603
42628,55621
42624,55600
42614,55578
42613,55610
42636,55605
42608,55622
42613,55620
42619,55613
42619,55628
42622,55629
42602,55623
42625,55617
42606,55610
42614,55607
42617,55583
42593,55550
42585,55550
42580,55517
42583,55511
42564,55510
42565,55479
42554,55472
42559,55488
42569,55470
42554,55477
42559,55489
42564,55478
42566,55490
42575,55482
42554,55495
42562,55496
42564,55480
42565,55479
42571,55465
42562,55470
42557,55473
42567,55480
42556,55445
42558,55456
42550,55449
42554,55452
42543,55441
42544,55441
42546,55450
42537,55441
42554,55461
42533,55452
42547,55459
42558,55452
42552,55462
42547,55462
42546,55448
42544,55433
42553,55460
42544,55447
42548,55446
42514,55442
42528,55445
42547,55441
42558,55426
42527,55437
42542,55451
42529,55440
42532,55448
42565,55479
42535,55432
42522,55456
42532,55455
42534,55462
42527,55422
42529,55412
42534,55431
42541,55437
42523,55448
42535,55453
42522,55447
42550,55437
42547,55459
42530,55459
42579,55435
42521,55453
42506,55446
42547,55462
42527,55437
42528,55448
42528,55448
42526,55463
42518,55459
42537,55472
42540,55460
42530,55459
42535,55459
42531,55477
42527,55453
42524,55468
42523,55478
42529,55475
42535,55476
42535,55451
42540,55459
42545,55463
42520,55491
42535,55468
42534,55485
42523,55482
42537,55480
42529,55492
42536,55493
42528,55481
42532,55481
42532,55488
42527,55475
42539,55484
42544,55486
42527,55490
42522,55495
42538,55493
42545,55485
42539,55497
42534,55498
42548,55492
42543,55487
42524,55496
42523,55517
42540,55518
42549,55517
42546,55506
42540,55530
42536,55511
42557,55510
42546,55526
42543,55513
42542,55536
42537,55533
42544,55528
42545,55519
42555,55549
42540,55516
42540,55522
42528,55505
42524,55487
42509,55460
42493,55439
42509,55431
42492,55400
42490,55390
42481,55383
42488,55361
42488,55380
42491,55364
42490,55371
42497,55376
42500,55371
42468,55378
42482,55369
42484,55384
42502,55384
42488,55375
42487,55365
42484,55367
42485,55354
42469,55339
42468,55338
42475,55318
42467,55333
42466,55325
42473,55319
42474,55302
42459,55306
42468,55319
42451,55319
42455,55330
42478,55329
42466,55321
42468,55327
42452,55317
42462,55314
42460,55319
42464,55319
42476,55318
42465,55318
42477,55308
42468,55292
42461,55286
42457,55292
42472,55292
42450,55309
42444,55286
42452,55294
42457,55296
42468,55293
42467,55287
42458,55289
42482,55286
42458,55291
42464,55298
42448,55289
42448,55294
42465,55310
42470,55296
42457,55305
42454,55289
42466,55300
42458,55303
42454,55301
42457,55304
42455,55311
42458,55309
42473,55311
42471,55286
42467,55291
42468,55291
42472,55302
42467,55312
42467,55311
42448,55304
42455,55300
42449,55301
42464,55316
42470,55316
42471,55303
42478,55306
42474,55316
42460,55313
42473,55324
42487,55319
42469,55316
42464,55332
42477,55322
42472,55315
42463,55323
42469,55337
42482,55330
42480,55342
42466,55325
42476,55313
42485,55331
42468,55342
42474,55345
42476,55347
42464,55328
42465,55342
42463,55349
42481,55345
42482,55348
42475,55347
42468,55351
42497,55352
42486,55342
42461,55357
42490,55380
42474,55351
42484,55349
42474,55359
42482,55367
42486,55356
42499,55366
42480,55367
42486,55359
42482,55370
42480,55376
42475,55374
42482,55385
42496,55384
42505,55388
42498,55378
42482,55383
42486,55367
42485,55384
42473,55355
42473,55355
42480,55343
42461,55313
42452,55294
42441,55275
42437,55255
42450,55221
42427,55235
42445,55213
42435,55203
42424,55204
42436,55206
42428,55216
42416,55211
42429,55223
42434,55218
42422,55216
42419,55213
42435,55212
42416,55205
42431,55202
42411,55194
42433,55192
42419,55186
42430,55170
42414,55167
42423,55170
42406,55162
42411,55173
42430,55155
42416,55150
42419,55151
42406,55161
42417,55148
42419,55143
42421,55163
42403,55144
42414,55157
42418,55144
42411,55146
42420,55146
42405,55147
42401,55138
42407,55143
42420,55130
42404,55118
42400,55141
42418,55113
42402,55135
42419,55213
42411,55144
42408,55154
42395,55150
42405,55111
42420,55099
42399,55113
42400,55126
42411,55141
42411,55123
42407,55119
42406,55122
42410,55122
42422,55129
42406,55129
42431,55146
42389,55136
42396,55105
42378,55121
42411,55143
42400,55128
42402,55119
42413,55138
42416,55129
42414,55135
42412,55128
42405,55141
42416,55127
42409,55133
42402,55141
42415,55146
42399,55135
42402,55137
42406,55141
42407,55139
42415,55146
42423,55152
42423,55152
42411,55142
42418,55150
42410,55137
42414,55144
42405,55154
42416,55155
42405,55160
42421,55161
42424,55158
42411,55156
42425,55167
42414,55161
42419,55167
42418,55164
42425,55159
42428,55161
42425,55177
42426,55164
42418,55162
42421,55180
42423,55176
42414,55181
42429,55167
42431,55179
42427,55185
42422,55189
42441,55187
42430,55189
42420,55198
42437,55192
42418,55197
42444,55199
42440,55195
42421,55192
42424,55206
42442,55199
42439,55197
42433,55190
42438,55225
42437,55210
42430,55201
42430,55169
42422,55159
42404,55134
42402,55103
42393,55095
42407,55070
42393,55063
42381,55058
42364,55054
42386,55043
42371,55044
42383,55034
42381,55039
42378,55045
42392,55040
42393,55045
42388,55034
42392,55028
42387,55038
42389,55041
42388,55019
42380,55021
42377,55012
42375,55009
42392,54997
42348,55006
42365,54984
42368,54993
42375,54992
42371,54993
42359,54989
42371,55003
42369,54998
42374,54987
42371,54989
42368,54998
42389,55003
42369,54983
42380,54995
42385,55000
42378,54978
42381,54954
42376,54978
42371,54985
42349,54964
42381,54986
42362,54971
42380,54963
42358,54965
42351,54972
42370,54970
42380,54976
42357,54974
42369,54970
42371,54974
42363,54956
42368,54958
42376,54965
42382,54971
42350,54974
42379,54976
42368,54981
42368,54975
42372,54964
42369,54981
42377,54983
42380,54985
42386,54991
42387,54996
42373,54976
42382,54985
42382,54985
42377,54965
42374,54981
42367,54990
42390,54995
42373,54991
42378,54988
42367,54999
42375,54996
42391,54987
42391,54999
42378,54998
42385,54998
42387,55013
42376,54998
42389,55006
42376,55019
42374,55006
42384,55018
42400,55026
42379,55014
42392,55023
42387,55033
42392,55024
42387,55042
42387,55023
42391,55036
42384,55014
42391,55031
42400,55037
42396,55034
42399,55046
42411,55035
42407,55040
42400,55057
42395,55039
42406,55058
42416,55063
42409,55059
42404,55054
42404,55065
42405,55040
42377,55047
42395,55025
42382,55019
42387,55010
42367,54999
42375,55005
42381,55005
42401,55018
42422,55037
42431,55050
42443,55103
42469,55135
42407,55060
42406,55065
42416,55076
42408,55086
42403,55081
42396,55077
42393,55069
42384,55080
42378,55081
42393,55088
42387,55082
42380,55068
42369,55053
42359,55037
42368,55032
42361,55012
42363,55007
42360,54981
42355,54984
42368,54990
42366,54990
42363,54984
42362,54995
42364,54988
42358,54979
42358,54985
42350,54979
42360,54995
42378,55001
42364,54973
42365,54992
42356,54986
42361,54984
42376,54968
42348,54962
42368,54961
42364,54944
42367,54938
42368,54972
42371,54954
42368,54953
42380,54964
42366,54972
42378,54957
42384,54972
42380,54982
42402,54966
42386,54985
42387,54987
42385,54985
42393,54982
42391,55005
42382,55010
42368,54997
42391,54961
42378,54977
42379,54969
42383,54977
42393,54988
42387,54974
42389,54979
42381,54979
42389,54989
42386,54992
42432,54979
42405,54991
42395,54991
42384,55001
42360,54992
42396,54986
42398,55011
42394,55013
42412,55005
42390,55011
42402,55013
42404,55026
42406,55018
42410,55024
42390,55013
42413,55020
42415,55022
42412,55034
42400,55021
42414,55016
42393,55034
42400,55030
42410,55040
42408,55037
42411,55035
42405,55042
42426,55036
42408,55052
42410,55053
42419,55056
42432,55049
42427,55039
42417,55046
42408,55049
42411,55057
42418,55051
42415,55058
42420,55064
42431,55070
42421,55073
42439,55075
42416,55080
42439,55095
42432,55086
42422,55085
42432,55073
42434,55076
42429,55088
42429,55092
42432,55095
42439,55097
42440,55102
42440,55101
42434,55097
42422,55107
42430,55103
42425,55104
42437,55116
42445,55099
42445,55120
42442,55120
42436,55127
42438,55122
42430,55106
42429,55103
42419,55088
42420,55063
42407,55043
42408,55028
42425,55024
42410,55018
42393,55011
42414,55018
42408,55012
42402,55018
42407,55028
42398,55028
42404,55020
42404,55018
42424,55047
42425,55015
42407,55026
42425,55036
42414,55035
42387,55034
42408,55026
42410,55033
42395,55004
42391,55013
42403,55003
42396,54986
42399,55006
42397,55008
42403,55016
42411,55015
42407,55030
42408,55029
42412,55026
42428,55022
42408,55021
42415,55021
42398,55016
42415,55020
42407,55030
42415,55027
42412,55036
42401,54998
42408,55013
42420,55033
42415,55013
42401,55007
42415,55020
42402,55020
42400,55025
42405,55015
42415,55021
42417,55032
42417,55025
42405,55031
42406,55035
42409,55037
42424,55031
42409,55043
42415,55028
42411,55030
42416,55049
42421,55040
42424,55035
42418,55044
42424,55056
42432,55047
42400,55053
42420,55070
42411,55060
42416,55052
42421,55060
42421,55056
42421,55048
42430,55065
42416,55050
42410,55064
42429,55068
42417,55064
42425,55080
42433,55081
42429,55084
42428,55081
42432,55073
42442,55099
42435,55084
42420,55080
42435,55086
42437,55088
42437,55097
42434,55095
42435,55111
42446,55091
42428,55087
42439,55104
42443,55099
42429,55104
42438,55113
42437,55113
42434,55112
42438,55115
42420,55100
42444,55115
42438,55130
42438,55120
42443,55143
42460,55140
42449,55124
42455,55138
42451,55140
42443,55136
42459,55153
42434,55153
42453,55156
42459,55139
42451,55140
42445,55163
42449,55146
42451,55177
42458,55164
42455,55165
42456,55157
42464,55172
42457,55167
42450,55169
42462,55164
42458,55181
42444,55198
42438,55187
42466,55199
42477,55186
42463,55190
42455,55170
42453,55152
42443,55121
42434,55112
42441,55098
42421,55091
42415,55078
42425,55074
42425,55073
42419,55064
42437,55066
42413,55072
42434,55070
42419,55076
42442,55073
42434,55076
42432,55082
42421,55074
42419,55089
42437,55078
42424,55070
42429,55056
42417,55056
42419,55047
42412,55055
42423,55057
42429,55045
42419,55034
42413,55025
42413,55041
42422,55038
42416,55019
42418,55055
42418,55030
42426,55053
42435,55043
42419,55046
42436,55049
42432,55056
42423,55043
42402,55040
42448,55022
42423,55023
42403,55034
42416,55021
42427,55024
42422,55043
42418,55034
42418,55042
42420,55014
42414,55017
42422,55032
42419,55012
42415,55032
42417,55026
42424,55037
42417,55046
42435,55021
42428,55017
42469,55042
42424,55026
42442,55039
42402,55038
42416,55019
42415,55041
42425,55058
42418,55045
42417,55046
42447,55046
42429,55044
42426,55046
42426,55026
42419,55041
42443,55039
42418,55037
42431,55040
42422,55044
42419,55063
42425,55050
42422,55059
42421,55070
42428,55062
42425,55064
42425,55067
42423,55058
42424,55074
42430,55058
42438,55077
42441,55083
42423,55072
42441,55054
42430,55060
42429,55062
42437,55073
42449,55063
42426,55079
42431,55061
42425,55082
42447,55091
42432,55081
42438,55079
42434,55098
42437,55082
42450,55092
42434,55094
42445,55097
42426,55104
42439,55088
42433,55091
42443,55097
42445,55108
42442,55120
42426,55107
42446,55102
42449,55101
42447,55121
42434,55098
42445,55106
42442,55122
42442,55120
42439,55115
42446,55125
42436,55123
42438,55113
42441,55106
42433,55085
42426,55078
42427,55061
42399,55031
42421,55037
42421,55009
42405,55001
42421,54988
42405,54996
42411,55018
42421,54990
42413,54999
42399,55015
42395,55004
42413,55004
42414,55021
42391,55016
42405,55011
42408,54982
42403,54988
42421,54985
42394,54990
42397,54982
42403,54974
42401,54982
42397,54963
42395,54962
42393,54952
42412,54952
42406,54956
42401,54974
42403,54964
42397,54975
42404,54980
42403,54959
42402,54963
42404,54970
42401,54966
42402,54966
42398,54951
42412,54944
42409,54962
42407,54951
42382,54956
42397,54953
42377,54953
42399,54947
42385,54961
42396,54955
42398,54960
42396,54953
42396,54944
42399,54952
42399,54970
42399,54960
42392,54956
42394,54971
42401,54969
42406,54949
42392,54958
42411,54993
42409,54945
42404,54971
42396,54954
42406,54947
42399,54979
42396,54940
42397,54976
42409,54970
42399,54978
42394,54961
42393,54970
42396,54963
42401,54966
42385,54980
42404,54979
42393,54962
42397,54965
42400,54979
42393,54957
42402,54975
42403,54990
42413,54975
42398,54972
42403,54977
42403,54980
42402,54969
42406,54989
42407,54993
42422,54990
42403,54996
42387,54997
42397,54993
42406,54991
42416,54994
42390,54999
42411,55009
42403,54991
42414,55010
42400,55010
42407,55004
42421,55012
42420,55014
42416,55025
42404,55015
42429,55016
42423,55021
42414,55027
42420,55011
42426,55017
42420,55029
42410,55052
42429,55020
42423,55027
42425,55034
42421,55032
42418,55030
42432,55058
42426,55038
42429,55034
42428,55028
42414,55038
42426,55047
42422,55049
42426,55053
42410,55058
42439,55073
42428,55061
42447,55064
42442,55075
42444,55058
42440,55069
42423,55066
42432,55087
42448,55073
42450,55083
42430,55076
42424,55071
42433,55063
42416,55049
42424,55036
42409,54998
42409,55002
42406,54986
42411,54983
42400,54965
42389,54976
42402,54974
42411,54978
42400,54958
42421,54975
42397,54976
42406,54988
42422,54987
42411,55002
42404,54974
42404,54974
42405,54981
42398,54973
42399,54982
42401,54957
42389,54951
42411,54960
42401,54941
42398,54951
42388,54941
42388,54946
42384,54955
42388,54948
42409,54947
42398,54969
42410,54947
42415,54962
42399,54962
42401,54960
42416,54976
42404,54958
42404,54983
42402,54978
42406,54974
42413,54954
42391,54918
42395,54934
42405,54966
42400,54944
42392,54944
42400,54949
42397,54968
42399,54959
42422,54967
42419,54956
42428,54977
42400,54969
42366,54972
42411,54960
42402,54962
42410,54984
42404,54981
42413,54983
42410,54974
42401,54966
42397,54980
42412,54978
42419,54971
42395,54988
42416,54975
42395,54969
42408,54976
42411,54996
42411,54973
42395,54980
42394,54999
42406,55003
42396,55004
42419,54994
42412,54995
42411,54996
42411,55001
42401,55010
42410,55004
42405,55013
42408,55005
42394,55017
42424,55027
42417,55008
42415,55025
42418,55024
42400,55020
42394,55016
42429,55025
42407,55009
42417,55021
42410,55024
42411,55026
42415,55031
42429,55024
42417,55051
42417,55042
42418,55046
42425,55033
42409,55044
42414,55033
42417,55027
42412,55056
42407,55047
42412,55060
42422,55046
42419,55046
42427,55058
42428,55073
42430,55037
42423,55057
42429,55055
42420,55049
42419,55047
42423,55078
42431,55071
42430,55070
42428,55074
42424,55066
42431,55068
42435,55083
42430,55079
42405,55085
42430,55075
42430,55084
42443,55088
42443,55078
42415,55086
42429,55091
42415,55076
42419,55062
42395,55048
42392,55019
42393,55013
42406,55013
42395,54998
42402,54999
42389,54987
42388,54984
42395,54989
42391,55007
42401,55000
42399,55011
42393,55014
42392,55013
42393,55019
42392,54994
42391,54997
42385,55005
42382,54988
42394,54988
42379,54983
42383,54985
42380,54982
42382,54964
42383,54964
42394,54967
42380,54980
42377,54968
42389,54979
42373,54967
42383,54988
42382,54995
42385,54986
42384,54982
42376,54973
42391,54988
42396,54993
42378,55001
42379,54982
42386,54978
42385,54969
42383,54983
42376,54990
42373,54988
42382,54978
42370,54970
42381,54989
42376,54987
42372,54969
42373,54966
42395,54982
42373,54995
42387,55007
42381,54992
42386,55000
42377,55001
42375,54995
42384,55003
42386,54987
42381,55002
42384,54995
42376,55004
42379,55013
42370,55004
42378,54996
42373,55021
42376,55021
42374,55003
42380,55008
42395,55019
42384,55018
42373,55025
42374,55025
42388,55020
42373,55003
42388,55025
42384,55016
42374,55037
42369,55030
42377,55020
42379,55017
42389,55033
42377,55026
42368,55028
42376,55024
42379,55031
42374,55024
42378,55044
42380,55037
42397,55054
42383,55036
42389,55045
42387,55049
42375,55049
42389,55043
42394,55060
42401,55066
42380,55038
42386,55048
42387,55063
42375,55062
42397,55048
42374,55054
42392,55063
42385,55070
42393,55070
42385,55076
42395,55070
42393,55086
42398,55083
42388,55074
42386,55084
42376,55080
42379,55079
42399,55083
42395,55090
42393,55095
42391,55108
42382,55092
42398,55104
42398,55102
42405,55108
42408,55092
42401,55115
42381,55105
42404,55115
42400,55111
42392,55116
42407,55111
42409,55115
42394,55111
42401,55123
42398,55122
42397,55131
42394,55134
42394,55118
42377,55104
42387,55078
42394,55071
42376,55056
42378,55031
42361,55049
42353,55012
42348,55010
42367,55019
42372,55002
42368,55014
42363,55019
42379,55015
42375,55013
42363,55025
42358,55028
42361,55013
42351,55011
42393,55014
42361,55018
42376,54990
42350,55002
42342,54993
42338,54985
42350,54991
42355,54988
42346,54996
42354,54974
42349,54974
42349,54949
42353,54980
42343,54990
42349,54962
42332,55006
42374,54992
42362,54996
42359,54976
42346,54988
42367,54993
42361,54975
42315,54965
42372,55002
42354,54974
42338,54959
42322,54970
42340,54965
42328,54969
42337,54966
42351,54977
42347,54971
42355,54981
42338,54978
42349,54986
42345,54985
42344,54970
42346,54987
42359,54978
42331,54962
42349,54970
42357,54988
42344,54987
42342,54991
42336,54973
42346,54982
42341,54990
42355,54991
42334,54998
42355,54982
42362,55005
42349,54988
42349,54990
42354,54994
42347,54987
42345,54991
42353,55008
42368,54984
42345,54992
42356,55000
42351,54988
42338,54993
42361,54994
42360,55013
42345,55022
42354,54992
42360,54993
42338,55015
42352,55016
42349,55022
42355,55010
42354,55010
42353,55028
42372,55016
42358,55016
42346,55011
42364,55014
42343,55028
42341,55031
42364,55041
42347,55030
42357,55036
42359,55033
42361,55038
42355,55047
42358,55039
42362,55048
42363,55059
42366,55058
42374,55057
42357,55053
42353,55041
42353,55057
42362,55050
42366,55062
42358,55060
42347,55067
42353,55059
42373,55062
42358,55066
42374,55069
42356,55070
42354,55079
42365,55067
42353,55076
42373,55097
42367,55081
42381,55093
42380,55085
42371,55079
42381,55095
42366,55063
42374,55090
42366,55089
42349,55056
42350,55047
42337,55016
42349,55005
42334,55004
42329,54983
42337,54981
42330,54977
42333,54967
42321,54963
42336,54975
42312,54990
42334,54970
42328,54978
42334,54977
42314,54981
42334,54973
42326,54969
42335,54970
42335,54975
42342,54985
42320,54949
42316,54946
42320,54956
42322,54947
42298,54941
42309,54935
42300,54939
42307,54931
42322,54944
42316,54946
42326,54953
42310,54940
42317,54943
42299,54955
42315,54954
42316,54937
42313,54957
42321,54938
42305,54947
42313,54948
42313,54949
42325,54936
42314,54938
42308,54931
42314,54931
42301,54946
42310,54933
42314,54946
42303,54947
42317,54950
42310,54946
42301,54942
42309,54963
42304,54953
42312,54968
42317,54963
42313,54949
42321,54948
42305,54951
42320,54966
42311,54968
42316,54948
42300,54970
42323,54961
42319,54959
42307,54969
42313,54952
42308,54946
42313,54961
42308,54959
42310,54987
42319,54984
42322,54970
42322,54970
42318,54982
42311,54977
42325,54966
42313,54968
42319,54986
42331,54975
42320,54995
42318,54990
42299,54989
42314,54990
42317,54992
42328,54982
42316,54992
42324,54994
42321,54992
42320,54991
42326,55003
42336,55010
42333,54992
42329,55015
42327,54992
42336,55000
42328,55017
42339,55006
42339,55026
42332,55017
42339,55002
42332,55028
42332,55036
42336,55024
42338,55020
42344,55034
42343,55037
42346,55039
42340,55043
42341,55047
42346,55030
42329,55054
42345,55041
42342,55043
42349,55057
42345,55064
42349,55057
42352,55067
42347,55061
42349,55060
42351,55074
42340,55073
42352,55053
42335,55067
42351,55081
42352,55082
42344,55078
42344,55069
42358,55090
42370,55099
42362,55060
42356,55081
42355,55089
42347,55080
42346,55070
42336,55055
42323,55039
42333,55013
42322,55008
42319,54985
42339,54969
42311,54964
42299,54956
42318,54964
42320,54956
42307,54973
42323,54976
42318,54945
42308,54950
42319,54975
42318,54954
42317,54952
42312,54937
42313,54951
42305,54947
42308,54945
42310,54931
42328,54930
42330,54938
42291,54924
42277,54915
42370,55099
42291,54910
42304,54910
42298,54924
42304,54919
42306,54920
42310,54914
42296,54920
42310,54926
42297,54935
42301,54925
42312,54916
42317,54935
42319,54914
42292,54925
42314,54930
42311,54909
42310,54919
42300,54905
42307,54922
42309,54902
42310,54919
42292,54904
42293,54908
42302,54909
42312,54911
42298,54907
42306,54925
42306,54922
42303,54927
42304,54918
42308,54913
42291,54919
42318,54943
42308,54914
42319,54935
42312,54940
42326,54932
42298,54927
42292,54940
42316,54930
42320,54944
42317,54936
42318,54935
42320,54946
42320,54937
42307,54947
42308,54956
42324,54940
42304,54938
42326,54966
42315,54955
42344,54960
42327,54964
42323,54956
42331,54968
42331,54944
42327,54970
42336,54964
42329,54974
42317,54972
42326,54971
42334,55000
42325,54978
42321,54984
42334,54985
42332,54986
42331,54983
42342,54995
42328,55000
42347,54985
42350,55001
42320,54995
42350,55017
42334,54999
42334,55016
42351,55006
42340,55021
42334,55020
42340,55020
42346,55020
42343,55025
42339,55014
42347,55032
42356,55009
42354,55020
42352,55029
42355,55034
42347,55036
42346,55040
42349,55035
42340,55040
42355,55048
42348,55037
42351,55050
42347,55055
42356,55066
42366,55063
42368,55061
42346,55069
42356,55066
42357,55061
42351,55059
42351,55074
42364,55079
42349,55082
42358,55067
42369,55065
42331,55036
42335,55011
42336,54998
42336,54977
42337,54963
42320,54942
42315,54940
42300,54934
42314,54936
42314,54931
42327,54935
42328,54923
42327,54941
42322,54934
42318,54925
42314,54939
42327,54936
42320,54929
42299,54932
42325,54922
42309,54910
42314,54921
42312,54906
42316,54919
42294,54917
42308,54890
42318,54887
42318,54889
42312,54888
42305,54903
42319,54906
42301,54902
42303,54895
42310,54885
42313,54893
42317,54882
42307,54901
42311,54893
42310,54886
42308,54903
42311,54898
42298,54872
42299,54885
42299,54870
42302,54864
42299,54880
42314,54871
42295,54872
42312,54869
42309,54861
42313,54862
42302,54866
42303,54868
42306,54857
42300,54875
42305,54877
42321,54876
42314,54876
42305,54887
42312,54879
42308,54886
42299,54869
42297,54889
42308,54884
42305,54886
42306,54910
42312,54893
42316,54871
42308,54897
42304,54888
42318,54897
42308,54904
42319,54905
42299,54893
42334,54910
42313,54900
42324,54901
42318,54909
42313,54911
42322,54914
42320,54914
42327,54904
42315,54924
42317,54933
42317,54908
42328,54914
42326,54908
42303,54923
42296,54934
42324,54920
42318,54940
42315,54935
42329,54924
42315,54936
42335,54937
42342,54940
42317,54944
42338,54949
42342,54949
42352,54954
42346,54951
42335,54938
42358,54960
42362,54960
42339,54963
42351,54951
42337,54973
42346,54952
42348,54968
42325,54957
42351,54983
42352,55005
42353,54980
42352,54978
42352,54985
42353,54986
42354,54977
42352,54984
42348,55008
42362,54989
42354,55006
42352,54995
42363,55015
42348,55007
42343,54967
42341,54950
42303,54927
42319,54916
42321,54890
42316,54886
42301,54891
42310,54814
42311,54776
42295,54813
42305,54816
42280,54758
42280,54763
42275,54737
42275,54741
42289,54748
42291,54742
42295,54733
42287,54733
42284,54729
42307,54742
42266,54733
42275,54713
42289,54713
42283,54715
42288,54710
42291,54699
42294,54724
42290,54727
42296,54724
42284,54731
42289,54737
42290,54722
42293,54707
42294,54728
42287,54728
42295,54727
42285,54735
42288,54727
42290,54732
42285,54730
42308,54735
42295,54734
42309,54734
42317,54735
42299,54744
42302,54733
42303,54749
42295,54738
42306,54739
42308,54764
42301,54745
42304,54745
42303,54750
42291,54730
42297,54743
42312,54737
42310,54763
42302,54747
42302,54746
42311,54779
42316,54756
42323,54764
42313,54751
42317,54772
42320,54774
42320,54760
42320,54767
42326,54771
42316,54775
42315,54765
42306,54773
42328,54768
42315,54791
42320,54778
42329,54794
42311,54784
42334,54788
42330,54780
42321,54794
42322,54812
42334,54801
42337,54810
42328,54812
42340,54803
42330,54809
42334,54827
42331,54828
42340,54815
42330,54834
42334,54827
42344,54819
42339,54817
42352,54839
42336,54841
42343,54824
42352,54817
42349,54848
42353,54859
42349,54842
42359,54850
42346,54840
42354,54862
42365,54865
42351,54859
42356,54868
42368,54860
42356,54863
42358,54859
42364,54845
42350,54837
42342,54803
42331,54781
42326,54756
42326,54735
42311,54701
42307,54701
42302,54679
42295,54678
42307,54676
42306,54680
42307,54664
42303,54663
42321,54663
42321,54665
42305,54669
42307,54658
42323,54668
42315,54668
42302,54649
42298,54664
42311,54650
42300,54645
42302,54635
42290,54624
42295,54619
42291,54622
42303,54612
42314,54607
42306,54617
42298,54602
42303,54595
42297,54607
42297,54601
42298,54607
42306,54618
42299,54612
42308,54626
42306,54610
42310,54603
42295,54612
42286,54609
42302,54613
42291,54614
42295,54587
42281,54607
42299,54591
42306,54591
42271,54590
42296,54588
42303,54581
42297,54582
42294,54590
42296,54598
42304,54588
42291,54595
42305,54589
42295,54594
42296,54586
42303,54599
42301,54593
42299,54602
42300,54603
42302,54601
42308,54589
42295,54627
42297,54609
42328,54606
42306,54591
42313,54626
42324,54609
42308,54605
42309,54588
42305,54608
42324,54602
42323,54602
42311,54591
42321,54597
42317,54610
42320,54604
42307,54612
42305,54594
42327,54609
42310,54611
42323,54612
42315,54622
42322,54620
42321,54609
42319,54627
42306,54609
42319,54613
42320,54609
42333,54628
42317,54619
42327,54626
42298,54623
42324,54628
42321,54620
42330,54626
42324,54623
42318,54633
42313,54639
42315,54643
42320,54652
42328,54656
42322,54649
42317,54645
42334,54643
42331,54667
42335,54655
42339,54661
42340,54647
42320,54651
42339,54665
42329,54668
42349,54670
42352,54689
42371,54660
42344,54666
42332,54641
42328,54635
42317,54612
42319,54613
42310,54579
42292,54561
42303,54533
42287,54485
42286,54468
42283,54466
42279,54474
42285,54461
42289,54469
42288,54460
42287,54473
42290,54473
42301,54474
42267,54467
42274,54456
42260,54456
42258,54454
42267,54434
42279,54417
42268,54418
42270,54429
42261,54404
42249,54395
42259,54396
42261,54396
42244,54396
42270,54384
42266,54390
