44702,57779
44700,57794
44708,57793
44689,57802
44700,57793
44712,57780
44704,57810
44699,57805
44700,57800
44704,57817
44709,57802
44707,57807
44684,57796
44714,57806
44709,57786
44712,57793
44685,57795
44699,57791
44686,57787
44712,57799
44697,57784
44701,57793
44706,57795
44706,57785
44698,57796
44710,57796
44710,57801
44720,57803
44715,57791
44706,57793
44703,57791
44702,57804
44714,57808
44704,57796
44697,57808
44701,57809
44713,57796
44706,57798
44709,57815
44700,57804
44707,57804
44713,57827
44715,57819
44709,57810
44701,57806
44708,57817
44712,57805
44714,57834
44719,57815
44713,57830
44710,57827
44720,57801
44718,57823
44710,57819
44716,57818
44717,57818
44717,57828
44716,57820
44716,57840
44714,57828
44720,57826
44712,57842
44719,57834
44710,57834
44724,57824
44730,57837
44711,57811
44725,57846
44725,57851
44737,57846
44716,57857
44737,57862
44710,57839
44721,57861
44727,57844
44732,57856
44738,57857
44727,57854
44740,57862
44722,57881
44718,57883
44740,57847
44739,57842
44736,57851
44730,57856
44733,57872
44736,57865
44745,57883
44739,57886
44735,57887
44741,57879
44768,57898
44775,57886
44753,57903
44714,57901
44747,57905
44737,57894
44727,57906
44755,57901
44761,57899
44747,57896
44751,57890
44742,57884
44739,57866
44735,57850
44727,57834
44707,57822
44710,57803
44717,57800
44699,57783
44714,57776
44720,57786
44734,57788
44718,57776
44720,57785
44722,57800
44704,57795
44714,57799
44714,57808
44710,57800
44715,57802
44723,57790
44720,57793
44716,57782
44707,57778
44705,57788
44702,57772
44710,57751
44708,57750
44705,57763
44705,57747
44710,57772
44695,57768
44705,57760
44710,57768
44699,57763
44718,57766
44705,57775
44703,57769
44695,57790
44691,57768
44700,57773
44710,57756
44704,57765
44712,57770
44706,57767
44697,57778
44698,57771
44701,57756
44686,57746
44700,57760
44697,57768
44705,57768
44709,57760
44706,57767
44706,57773
44703,57751
44705,57760
44709,57767
44711,57763
44706,57763
44709,57775
44696,57761
44710,57766
44704,57776
44705,57794
44694,57773
44692,57796
44698,57773
44712,57793
44701,57790
44692,57780
44713,57788
44698,57781
44707,57805
44698,57797
44710,57776
44704,57796
44710,57770
44698,57796
44705,57790
44707,57786
44704,57797
44699,57796
44716,57793
44704,57797
44720,57808
44703,57806
44710,57800
44701,57813
44719,57805
44705,57806
44706,57813
44712,57808
44722,57809
44709,57806
44715,57815
44724,57813
44727,57818
44722,57811
44714,57821
44723,57832
44715,57817
44716,57827
44729,57819
44721,57838
44718,57836
44714,57851
44717,57840
44723,57843
44716,57849
44717,57837
44725,57835
44726,57857
44724,57857
44727,57849
44737,57862
44719,57844
44728,57854
44734,57840
44733,57860
44740,57868
44715,57868
44740,57886
44734,57859
44749,57877
44738,57877
44727,57886
44729,57895
44745,57886
44740,57894
44728,57883
44733,57881
44723,57853
44730,57853
44719,57814
44706,57805
44725,57802
44704,57792
44701,57787
44697,57797
44707,57791
44709,57784
44715,57779
44705,57783
44704,57808
44717,57786
44697,57802
44707,57811
44723,57800
44707,57802
44704,57803
44708,57791
44696,57795
44721,57782
44705,57796
44696,57796
44701,57782
44700,57781
44693,57762
44691,57774
44704,57787
44709,57781
44711,57789
44708,57784
44718,57789
44705,57791
44710,57791
44721,57797
44711,57783
44697,57790
44713,57802
44701,57806
44705,57801
44707,57792
44706,57797
44715,57774
44710,57779
44707,57794
44695,57802
44706,57781
44698,57783
44703,57793
44704,57775
44695,57799
44706,57792
44693,57801
44697,57804
44694,57802
44699,57812
44712,57807
44710,57811
44718,57809
44709,57811
44723,57811
44716,57819
44717,57815
44707,57812
44715,57810
44706,57826
44717,57821
44712,57809
44718,57832
44715,57831
44705,57813
44729,57826
44708,57823
44714,57819
44709,57821
44718,57829
44714,57834
44711,57789
44714,57828
44724,57847
44713,57831
44705,57835
44717,57830
44729,57836
44716,57857
44732,57851
44714,57854
44743,57839
44723,57852
44713,57868
44727,57861
44725,57863
44717,57899
44733,57881
44729,57850
44715,57833
44734,57872
44726,57867
44719,57880
44730,57874
44719,57877
44716,57890
44733,57876
44746,57889
44741,57894
44757,57879
44725,57910
44714,57890
44712,57904
44725,57905
44731,57911
44737,57907
44739,57906
44736,57898
44727,57895
44734,57899
44722,57889
44723,57857
44727,57868
44713,57838
44711,57823
44717,57838
44706,57830
44706,57816
44697,57809
44712,57818
44714,57823
44710,57834
44727,57838
44729,57835
44730,57856
44732,57852
44713,57851
44713,57838
44718,57839
44720,57850
44704,57849
44705,57841
44710,57837
44721,57840
44711,57825
44703,57832
44712,57833
44712,57835
44708,57833
44700,57834
44707,57857
44718,57843
44724,57851
44703,57850
44720,57843
44715,57848
44716,57837
44709,57858
44717,57860
44710,57844
44723,57845
44712,57851
44703,57849
44725,57847
44705,57837
44717,57853
44706,57862
44721,57847
44713,57837
44707,57862
44722,57865
44720,57859
44711,57843
44711,57862
44719,57850
44712,57858
44727,57864
44724,57862
44735,57883
44704,57862
44727,57867
44717,57872
44731,57882
44717,57895
44727,57865
44715,57888
44716,57887
44719,57901
44717,57867
44725,57892
44721,57891
44718,57892
44725,57908
44726,57886
44719,57884
44727,57910
44712,57900
44719,57906
44725,57897
44738,57916
44727,57914
44738,57915
44742,57932
44723,57927
44742,57947
44738,57939
44745,57942
44745,57941
44759,57933
44744,57960
44767,57957
44740,57983
44737,57952
44756,57969
44753,57958
44749,57981
44755,57962
44751,57965
44763,57970
44761,57971
44762,57990
44748,57980
44766,57973
44769,57980
44767,58009
44762,57992
44770,57998
44779,57991
44779,58011
44776,58008
44761,58008
44770,58004
44778,58014
44783,58043
44787,58023
44786,58025
44790,58034
44785,58043
44788,58042
44795,58056
44803,58062
44786,58037
44786,58058
44804,58056
44797,58076
44802,58035
44781,58051
44790,58030
44787,58016
44775,57995
44787,57988
44760,57989
44776,57982
44776,57993
44785,57988
44775,58002
44782,58001
44770,58009
44784,57996
44780,58031
44776,58011
44782,58019
44759,58004
44781,57997
44770,57989
44773,58004
44778,57998
44776,58007
44773,57999
44772,57989
44772,58009
44779,57976
44779,57979
44775,57991
44771,57988
44771,57996
44782,57998
44774,58002
44762,58018
44785,57998
44791,58015
44770,58011
44785,58021
44775,58022
44770,58012
44783,58011
44759,58013
44774,58020
44772,58023
44771,58014
44777,58016
44773,58007
44776,58015
44791,58013
44765,58016
44781,58022
44783,58029
44768,58018
44784,58017
44763,58018
44784,58051
44788,58033
44769,58024
44782,58038
44782,58029
44776,58016
44773,58036
44770,58038
44780,58055
44776,58034
44778,58057
44781,58048
44780,58053
44782,58044
44776,58043
44782,58047
44778,58042
44780,58052
44778,58057
44781,58065
44779,58061
44764,58047
44781,58063
44773,58069
44771,58044
44788,58065
44786,58047
44778,58065
44775,58062
44793,58067
44787,58070
44778,58078
44778,58082
44772,58081
44791,58077
44789,58072
44793,58094
44782,58086
44785,58080
44782,58080
44793,58088
44785,58120
44788,58124
44806,58081
44793,58076
44796,58094
44789,58103
44799,58114
44800,58113
44785,58121
44791,58105
44803,58113
44797,58128
44810,58108
44829,58122
44793,58134
44793,58121
44788,58065
44792,58126
44791,58142
44824,58140
44797,58151
44798,58146
44815,58139
44804,58137
44809,58137
44819,58155
44800,58155
44818,58149
44813,58145
44820,58157
44810,58162
44811,58152
44821,58130
44811,58142
44798,58123
44794,58113
44797,58108
44790,58097
44780,58083
44780,58094
44798,58091
44787,58093
44789,58085
44792,58112
44784,58108
44797,58096
44807,58104
44793,58115
44808,58108
44795,58126
44795,58114
44795,58098
44803,58106
44797,58106
44788,58103
44789,58105
44808,58104
44793,58102
44805,58113
44793,58108
44782,58104
44796,58102
44789,58107
44805,58103
44797,58108
44799,58115
44801,58124
44802,58123
44809,58133
44801,58133
44794,58125
44785,58129
44814,58103
44793,58136
44792,58132
44798,58120
44812,58126
44795,58111
44808,58121
44799,58135
44799,58129
44784,58132
44795,58149
44816,58145
44797,58131
44795,58139
44805,58136
44811,58140
44803,58137
44801,58137
44819,58157
44808,58147
44815,58144
44800,58151
44805,58161
44812,58160
44813,58149
44797,58159
44799,58163
44804,58165
44799,58168
44807,58175
44783,58173
44792,58172
44807,58171
44805,58162
44797,58166
44817,58168
44816,58171
44813,58180
44808,58188
44805,58171
44812,58180
44821,58181
44805,58172
44819,58187
44803,58179
44806,58174
44808,58186
44822,58178
44812,58192
44821,58193
44820,58198
44814,58181
44824,58211
44811,58214
44817,58210
44827,58201
44828,58204
44823,58207
44830,58202
44814,58191
44822,58206
44827,58207
44821,58211
44815,58227
44823,58218
44824,58223
44807,58223
44822,58201
44828,58218
44825,58235
44830,58231
44839,58224
44830,58230
44815,58242
44826,58235
44822,58238
44832,58226
44825,58236
44823,58222
44811,58216
44818,58203
44814,58177
44822,58179
44817,58182
44805,58174
44804,58168
44808,58172
44799,58180
44816,58174
44814,58185
44808,58174
44827,58182
44808,58199
44808,58181
44800,58192
44808,58182
44829,58195
44816,58174
44798,58188
44800,58184
44809,58168
44786,58168
44804,58181
44809,58177
44802,58178
44811,58176
44794,58170
44808,58183
44803,58187
44819,58182
44805,58181
44831,58191
44805,58202
44802,58195
44826,58197
44812,58205
44832,58201
44823,58186
44813,58208
44817,58186
44822,58209
44811,58196
44818,58189
44821,58191
44805,58179
44814,58178
44809,58186
44801,58207
44818,58193
44811,58208
44816,58206
44821,58208
44818,58207
44824,58215
44818,58220
44814,58210
44827,58228
44821,58208
44826,58206
44801,58206
44809,58230
44824,58231
44833,58230
44819,58213
44816,58217
44821,58238
44812,58225
44803,58231
44825,58231
44820,58213
44821,58238
44835,58219
44806,58222
44817,58235
44821,58231
44815,58239
44834,58233
44824,58255
44832,58272
44824,58251
44828,58241
44823,58247
44821,58228
44823,58240
44825,58262
44826,58251
44820,58251
44804,58242
44812,58256
44817,58249
44828,58246
44822,58275
44843,58257
44806,58270
44814,58268
44832,58275
44831,58289
44831,58306
44841,58237
44818,58246
44830,58257
44833,58265
44824,58290
44836,58286
44834,58279
44827,58269
44834,58279
44823,58279
44839,58290
44842,58296
44817,58280
44810,58290
44845,58284
44832,58301
44844,58281
44837,58300
44828,58288
44857,58316
44819,58297
44839,58307
44830,58305
44835,58299
44849,58303
44834,58314
44838,58302
44843,58311
44845,58316
44848,58307
44842,58320
44843,58315
44832,58308
44839,58317
44843,58319
44846,58335
44844,58327
44835,58303
44835,58288
44833,58286
44821,58270
44837,58257
44832,58255
44821,58247
44808,58251
44822,58261
44824,58251
44829,58250
44829,58262
44824,58265
44825,58274
44836,58260
44838,58267
44825,58279
44835,58275
44833,58283
44849,58273
44822,58279
44838,58288
44827,58285
44835,58273
44832,58269
44827,58254
44826,58269
44829,58268
44827,58266
44821,58267
44819,58288
44827,58279
44836,58293
44837,58279
44824,58283
44849,58279
44828,58281
44825,58292
44831,58287
44837,58274
44827,58269
44836,58273
44828,58273
44833,58282
44832,58279
44817,58270
44826,58288
44848,58286
44833,58276
44845,58294
44821,58280
44834,58287
44828,58285
44824,58296
44846,58297
44831,58300
44833,58285
44833,58313
44830,58303
44840,58294
44830,58300
44836,58304
44833,58314
44847,58306
44823,58307
44837,58321
44843,58313
44820,58315
44832,58307
44831,58312
44824,58318
44834,58315
44837,58308
44835,58313
44841,58326
44839,58305
44828,58303
44828,58320
44838,58311
44834,58308
44830,58321
44845,58321
44842,58319
44850,58332
44817,58310
44844,58317
44847,58320
44822,58325
44833,58324
44824,58318
44825,58338
44822,58323
44830,58339
44850,58325
44843,58339
44838,58326
44840,58323
44841,58343
44841,58347
44831,58342
44838,58352
44835,58335
44827,58342
44844,58353
44845,58347
44839,58346
44858,58340
44836,58342
44851,58346
44837,58360
44851,58351
44841,58368
44818,58364
44847,58349
44850,58358
44830,58359
44843,58361
44846,58363
44846,58363
44847,58361
44848,58354
44850,58354
44859,58376
44857,58374
44857,58373
44843,58363
44839,58379
44853,58355
44840,58388
44859,58358
44841,58371
44840,58374
44832,58349
44847,58323
44833,58324
44820,58300
44818,58305
44825,58287
44811,58294
44800,58279
44806,58270
44803,58286
44822,58293
44803,58287
44814,58305
44817,58300
44817,58297
44832,58320
44828,58305
44826,58311
44806,58298
44821,58311
44814,58296
44814,58289
44809,58266
44808,58283
44804,58282
44808,58263
44809,58275
44798,58254
44799,58272
44793,58271
44796,58262
44812,58276
44815,58269
44810,58271
44804,58280
44804,58282
44792,58289
44814,58272
44798,58278
44798,58285
44785,58275
44805,58270
44793,58266
44787,58282
44776,58260
44809,58264
44785,58255
44790,58254
44777,58265
44775,58271
44795,58257
44778,58267
44788,58269
44803,58262
44800,58261
44773,58253
44783,58284
44776,58273
44776,58279
44791,58277
44778,58278
44764,58265
44789,58265
44771,58269
44779,58256
44775,58278
44778,58272
44787,58277
44772,58271
44779,58278
44776,58281
44750,58273
44767,58283
44775,58293
44763,58290
44776,58285
44775,58240
44768,58255
44778,58264
44779,58279
44762,58280
44777,58274
44774,58273
44767,58280
44788,58271
44770,58277
44797,58286
44788,58260
44737,58281
44776,58273
44763,58288
44766,58294
44777,58283
44763,58279
44769,58270
44766,58292
44762,58283
44779,58292
44770,58284
44752,58283
44764,58278
44762,58300
44770,58297
44772,58284
44767,58299
44771,58287
44761,58293
44762,58286
44766,58304
44767,58283
44763,58296
44762,58294
44773,58289
44767,58297
44771,58311
44760,58292
44762,58283
44769,58314
44762,58305
44771,58309
44769,58303
44764,58310
44762,58306
44777,58312
44757,58311
44771,58326
44756,58309
44762,58314
44765,58324
44762,58316
44776,58317
44773,58317
44768,58326
44759,58319
44764,58307
44745,58295
44746,58285
44743,58256
44738,58254
44737,58227
44736,58239
44739,58226
44723,58199
44719,58211
44727,58222
44744,58210
44729,58207
44735,58219
44725,58225
44718,58213
44737,58223
44723,58229
44718,58223
44725,58212
44726,58218
44713,58220
44717,58217
44715,58190
44701,58191
44695,58186
44699,58194
44717,58178
44707,58183
44711,58183
44703,58192
44704,58176
44706,58186
44706,58194
44717,58189
44699,58184
44697,58186
44704,58176
44700,58174
44700,58171
44715,58183
44699,58188
44693,58169
44692,58174
44693,58165
44700,58177
44689,58159
44693,58177
44696,58176
44682,58163
44684,58179
44700,58160
44672,58173
44684,58167
44664,58164
44686,58151
44693,58164
44684,58174
44673,58156
44682,58170
44687,58175
44679,58179
44682,58167
44689,58166
44675,58162
44689,58172
44668,58181
44672,58171
44684,58156
44680,58160
44693,58171
44681,58172
44678,58172
44680,58150
44664,58166
44675,58172
44677,58170
44666,58170
44671,58164
44671,58169
44679,58156
44669,58181
44687,58168
44663,58174
44674,58176
44675,58177
44680,58181
44670,58196
44687,58188
44669,58181
44683,58187
44669,58180
44677,58200
44673,58182
44672,58193
44683,58188
44671,58189
44672,58194
44671,58186
44679,58196
44677,58195
44681,58202
44672,58197
44686,58179
44659,58196
44668,58202
44670,58204
44672,58204
44675,58190
44686,58196
44671,58210
44673,58201
44678,58203
44668,58211
44673,58208
44663,58195
44670,58206
44680,58225
44670,58212
44682,58207
44673,58203
44687,58212
44664,58212
44675,58217
44662,58189
44675,58224
44679,58207
44681,58227
44679,58220
44688,58217
44666,58223
44674,58209
44670,58192
44653,58188
44653,58165
44666,58147
44643,58124
44652,58121
44643,58099
44640,58111
44627,58105
44641,58094
44636,58100
44622,58107
44627,58100
44638,58097
44642,58108
44644,58095
44637,58111
44638,58106
44636,58102
44636,58113
44633,58090
44633,58082
44625,58094
44628,58092
44618,58057
44621,58072
44609,58074
44611,58062
44619,58061
44604,58063
44629,58054
44619,58076
44615,58076
44610,58064
44612,58070
44617,58082
44631,58069
44616,58049
44610,58070
44606,58046
44617,58056
44611,58053
44602,58037
44607,58067
44611,58038
44624,58045
44603,58047
44614,58052
44596,58036
44609,58049
44636,58102
44614,58057
44604,58076
44612,58043
44603,58011
44601,58037
44603,58025
44584,58044
44603,58058
44599,58033
44595,58043
44591,58055
44610,58045
44613,58055
44586,58060
44576,58056
44575,58052
44617,58082
44577,58054
44596,58037
44604,58054
44587,58041
44596,58063
44614,58040
44600,58037
44602,58043
44595,58057
44593,58061
44616,58045
44586,58045
44592,58075
44600,58069
44612,58063
44607,58052
44626,58056
44599,58064
44597,58049
44607,58067
44594,58057
44610,58061
44619,58053
44594,58057
44600,58064
44602,58069
44595,58057
44591,58077
44604,58069
44596,58069
44598,58066
44598,58070
44607,58064
44589,58065
44595,58067
44606,58067
44617,58088
44610,58069
44600,58082
44611,58080
44611,58081
44599,58074
44612,58080
44598,58076
44611,58089
44607,58088
44614,58077
44625,58093
44615,58092
44599,58100
44602,58084
44604,58094
44612,58094
44627,58113
44609,58107
44618,58118
44607,58102
44622,58107
44613,58107
44628,58113
44605,58109
44617,58119
44607,58080
44603,58097
44608,58072
44603,58044
44603,58037
44594,58026
44595,58017
44586,57992
44585,57973
44573,57964
44578,57965
44580,57958
44568,57968
44566,57965
44578,57965
44571,57966
44554,57972
44567,57979
44584,57959
44557,57943
44571,57967
44560,57951
44579,57926
44556,57952
44565,57918
44557,57924
44561,57925
44562,57914
44555,57916
44548,57906
44547,57915
44540,57903
44541,57901
44555,57923
44545,57893
44546,57913
44554,57899
44551,57896
44553,57887
44551,57889
44536,57892
44541,57895
44527,57887
44527,57868
44526,57882
44534,57889
44522,57865
44534,57874
44528,57867
44524,57873
44522,57871
44526,57867
44541,57886
44520,57869
44527,57863
44529,57886
44551,57875
44530,57870
44529,57847
44514,57875
44533,57859
44526,57849
44523,57865
44516,57867
44531,57857
44523,57862
44530,57863
44539,57843
44508,57854
44532,57850
44517,57867
44531,57854
44530,57869
44535,57861
44528,57861
44526,57848
44530,57869
44518,57849
44516,57865
44537,57850
44534,57859
44528,57857
44529,57864
44517,57860
44524,57862
44561,57865
44534,57861
44532,57870
44539,57866
44540,57886
44524,57856
44540,57875
44530,57860
44531,57872
44530,57877
44535,57868
44539,57887
44536,57870
44529,57885
44539,57889
44538,57888
44543,57865
44549,57889
44550,57876
44547,57897
44547,57889
44546,57891
44561,57886
44547,57886
44546,57882
44539,57896
44552,57896
44569,57900
44551,57897
44565,57900
44564,57887
44540,57896
44551,57918
44567,57896
44550,57917
44569,57900
44560,57903
44564,57931
44549,57928
44564,57920
44554,57911
44555,57923
44547,57920
44561,57937
44569,57937
44578,57921
44576,57947
44555,57935
44570,57923
44570,57925
44547,57908
44554,57891
44551,57880
44548,57840
44538,57833
44547,57818
44518,57801
44529,57789
44517,57780
44529,57772
44522,57778
44516,57772
44515,57770
44507,57772
44518,57773
44516,57747
44518,57780
44521,57768
44518,57765
44506,57765
44517,57755
44519,57753
44522,57745
44506,57734
44514,57746
44528,57726
44508,57721
44489,57721
44488,57699
44496,57722
44488,57734
44508,57708
44494,57691
44488,57667
44511,57703
44491,57699
44482,57700
44486,57696
44487,57695
44482,57698
44487,57699
44510,57677
44518,57690
44510,57669
44485,57683
44464,57662
44477,57655
44467,57658
44477,57667
44472,57665
44477,57654
44479,57649
44480,57663
44489,57662
44480,57659
44474,57653
44505,57659
44473,57650
44495,57649
44481,57659
44484,57674
44486,57661
44480,57663
44491,57650
44480,57652
44485,57641
44484,57654
44475,57657
44480,57645
44482,57662
44492,57634
44498,57652
44493,57650
44488,57645
44487,57645
44474,57662
44495,57643
44497,57651
44490,57648
44490,57651
44483,57669
44482,57657
44479,57665
44477,57667
44494,57653
44485,57642
44486,57667
44486,57656
44491,57661
44500,57660
44493,57678
44495,57643
44502,57677
44486,57662
44486,57663
44493,57661
44486,57663
44491,57668
44503,57679
44495,57676
44495,57668
44501,57668
44497,57674
44494,57693
44501,57674
44504,57682
44498,57671
44497,57682
44498,57683
44507,57698
44504,57676
44509,57694
44491,57702
44521,57697
44502,57680
44509,57699
44502,57705
44493,57698
44497,57658
44478,57633
44481,57613
44466,57604
44475,57588
44466,57565
44468,57546
44457,57529
44455,57538
44449,57519
44448,57530
44441,57519
44458,57514
44435,57516
44448,57513
44442,57493
44436,57518
44449,57496
44443,57519
44441,57499
44422,57484
44432,57489
44443,57464
44419,57450
44420,57459
44436,57430
44405,57441
44424,57432
44417,57428
44419,57428
44412,57429
44407,57431
44402,57438
44415,57430
44416,57430
44411,57416
44390,57430
44396,57419
44399,57417
44398,57408
44398,57414
44394,57384
44411,57377
44392,57386
44396,57394
44396,57382
44392,57374
44386,57380
44373,57367
44404,57379
44384,57363
44371,57371
44384,57364
44378,57343
44382,57357
44380,57368
44390,57355
44386,57385
44379,57374
44381,57371
44392,57372
44382,57388
44383,57362
44376,57359
44386,57372
44389,57369
44389,57367
44372,57355
44394,57371
44396,57378
44382,57358
44389,57377
44401,57353
44394,57360
44384,57359
44390,57371
44369,57344
44397,57384
44396,57361
44385,57369
44390,57348
44375,57360
44389,57356
44385,57373
44377,57355
44392,57374
44379,57373
44392,57366
44401,57368
44396,57376
44370,57362
44390,57367
44393,57367
44378,57379
44394,57381
44392,57378
44388,57383
44387,57380
44376,57370
44379,57389
44398,57397
44382,57401
44398,57395
44397,57395
44393,57404
44387,57406
44391,57389
44400,57393
44402,57398
44390,57412
44397,57408
44392,57401
44389,57420
44401,57419
44399,57417
44395,57411
44399,57421
44387,57416
44384,57418
44393,57426
44400,57420
44395,57424
44391,57416
44389,57431
44394,57423
44394,57439
44386,57452
44400,57429
44405,57437
44401,57417
44380,57432
44375,57399
44372,57379
44354,57347
44369,57337
44360,57308
44339,57313
44340,57284
44328,57274
44335,57270
44326,57251
44335,57254
44324,57237
44334,57239
44325,57268
44322,57243
44304,57245
44323,57233
44305,57229
44318,57239
44311,57226
44318,57218
44290,57202
44300,57194
44287,57187
44300,57200
44292,57203
44284,57148
44298,57141
44292,57149
44284,57157
44279,57148
44283,57166
44291,57161
44283,57146
44277,57152
44285,57152
44293,57147
44304,57132
44263,57137
44257,57137
44282,57127
44273,57118
44278,57134
44274,57126
44282,57142
44263,57128
44272,57112
44272,57113
44260,57112
44256,57111
44268,57104
44248,57112
44262,57110
44281,57119
44275,57124
44266,57123
44266,57118
44254,57117
44271,57108
44260,57109
44280,57115
44258,57124
44258,57128
44272,57135
44262,57128
44251,57122
44270,57134
44269,57122
44263,57125
44257,57117
44264,57120
44279,57122
44270,57144
44266,57113
44272,57119
44266,57140
44280,57136
44266,57136
44271,57131
44277,57122
44261,57140
44278,57143
44263,57144
44251,57153
44265,57144
44267,57157
44283,57168
44268,57160
44280,57151
44266,57140
44275,57184
44267,57160
44247,57165
44257,57173
44242,57173
44266,57190
44268,57192
44256,57170
44268,57198
44273,57190
44265,57204
44263,57190
44277,57206
44260,57187
44262,57185
44273,57201
44265,57213
44263,57222
44273,57205
44266,57211
44280,57208
44284,57223
44282,57225
44275,57231
44272,57226
44277,57222
44290,57240
44278,57244
44283,57263
44271,57256
44271,57250
44286,57250
44282,57256
44288,57278
44283,57265
44282,57274
44287,57273
44274,57263
44269,57237
44267,57241
44258,57220
44250,57196
44240,57197
44253,57169
44246,57142
44238,57151
44240,57157
44244,57137
44239,57134
44250,57144
44239,57137
44250,57160
44246,57173
44242,57171
44245,57173
44226,57163
44231,57159
44231,57159
44236,57166
44236,57149
44242,57150
44239,57155
44227,57137
44247,57137
44221,57136
44230,57142
44224,57128
44227,57146
44227,57135
44234,57139
44234,57147
44235,57143
44228,57148
44225,57154
44230,57157
44244,57144
44249,57155
44236,57150
44238,57160
44227,57158
44233,57133
44231,57155
44238,57150
44237,57148
44237,57129
44227,57149
44235,57145
44246,57159
44225,57157
44227,57148
44229,57148
44245,57164
44240,57153
44242,57159
44231,57169
44235,57169
44235,57171
44244,57185
44248,57163
44244,57175
44245,57191
44236,57181
44229,57189
44237,57191
44247,57200
44239,57188
44241,57190
44247,57192
44242,57206
44228,57196
44242,57191
44238,57196
44241,57219
44252,57201
44242,57209
44236,57222
44250,57223
44236,57225
44248,57220
44235,57222
44246,57223
44242,57228
44263,57224
44244,57235
44255,57238
44219,57250
44251,57247
44256,57228
44246,57257
44231,57250
44253,57241
44268,57255
44255,57269
44257,57279
44256,57266
44250,57279
44254,57266
44262,57271
44264,57303
44267,57291
44254,57287
44258,57272
44252,57299
44263,57294
44250,57294
44264,57305
44268,57302
44257,57307
44265,57313
44256,57317
44255,57309
44265,57298
44263,57293
44247,57297
44237,57279
44239,57238
44242,57256
44226,57239
44238,57228
44235,57233
44241,57230
44232,57201
44239,57237
44239,57237
44237,57242
44246,57238
44228,57254
44231,57250
44231,57235
44231,57229
44249,57238
44251,57230
44235,57233
44248,57217
44239,57233
44228,57232
44232,57240
44228,57209
44213,57195
44225,57193
44209,57214
44229,57223
44233,57227
44260,57231
44236,57226
44227,57234
44231,57239
44246,57238
44265,57236
44241,57221
44229,57234
44235,57233
44228,57236
44230,57241
44233,57233
44243,57227
44234,57234
44235,57235
44227,57233
44238,57231
44237,57234
44227,57228
44225,57246
44228,57246
44215,57258
44228,57251
44228,57250
44237,57244
44231,57240
44232,57242
44237,57255
44239,57252
44240,57255
44244,57251
44243,57260
44241,57263
44224,57259
44241,57261
44242,57266
44251,57253
44240,57282
44250,57257
44243,57292
44261,57284
44238,57284
44240,57270
44232,57284
44227,57274
44233,57286
44236,57277
44232,57296
44242,57287
44242,57281
44232,57287
44250,57310
44242,57300
44247,57294
44233,57299
44272,57301
44239,57290
44246,57309
44240,57303
44236,57313
44255,57324
44254,57309
44238,57320
44250,57317
44250,57335
44236,57315
44259,57336
44267,57341
44254,57330
44262,57359
44260,57326
44261,57335
44250,57348
44259,57355
44249,57361
44270,57344
44264,57358
44267,57354
44271,57375
44265,57369
44259,57372
44266,57365
44267,57372
44269,57379
44265,57373
44256,57370
44291,57385
44270,57381
44279,57396
44283,57399
44273,57408
44276,57395
44278,57392
44278,57406
44301,57402
44266,57406
44263,57419
44279,57423
44292,57429
44282,57416
44284,57419
44275,57433
44285,57434
44285,57412
44283,57423
44286,57403
44274,57384
44267,57376
44251,57344
44271,57345
44251,57340
44267,57341
44248,57324
44254,57338
44263,57342
44252,57351
44253,57345
44272,57354
44254,57353
44257,57353
44261,57344
44268,57341
44264,57337
44261,57341
44255,57342
44256,57347
44252,57339
44260,57321
44256,57318
44249,57317
44251,57318
44256,57326
44254,57315
44256,57324
44258,57319
44259,57336
44260,57337
44262,57342
44266,57341
44259,57334
44257,57341
44272,57341
44260,57335
44271,57331
44263,57351
44259,57326
44256,57328
44259,57335
44243,57317
44260,57322
44262,57317
44252,57335
44253,57327
44265,57336
44259,57336
44262,57325
44264,57353
44260,57329
44259,57321
44265,57353
44266,57351
44256,57337
44272,57347
44265,57335
44255,57359
44263,57343
44261,57351
44262,57363
44261,57360
44268,57354
44276,57364
44275,57357
44255,57374
44256,57355
44264,57352
44262,57369
44260,57370
44265,57371
44266,57371
44274,57362
44278,57365
44260,57374
44262,57376
44290,57372
44272,57384
44257,57374
44277,57388
44260,57386
44268,57391
44279,57391
44269,57407
44280,57394
44283,57398
44281,57393
44264,57410
44276,57396
44285,57406
44288,57406
44281,57406
44278,57410
44282,57417
44282,57415
44275,57424
44294,57420
44284,57415
44299,57427
44288,57431
44293,57426
44289,57445
44298,57427
44291,57437
44303,57436
44287,57445
44302,57434
44291,57456
44295,57448
44290,57452
44299,57445
44299,57439
44303,57465
44299,57469
44316,57467
44305,57474
44304,57479
44315,57483
44316,57473
44310,57486
44311,57471
44336,57490
44313,57483
44312,57474
44300,57480
44307,57465
44297,57454
44291,57435
44281,57399
44290,57365
44281,57400
44284,57388
44296,57403
44270,57398
44280,57394
44290,57402
44289,57400
44309,57402
44306,57401
44289,57403
44285,57408
44290,57452
44277,57401
44278,57400
44279,57397
44284,57376
44286,57380
44283,57392
44269,57383
44271,57390
44278,57378
44275,57402
44269,57375
44269,57370
44283,57379
44283,57389
44271,57375
44292,57386
44286,57369
44275,57395
44269,57389
44265,57384
44291,57392
44274,57380
44272,57373
44267,57374
44266,57389
44271,57375
44276,57384
44269,57384
44280,57373
44266,57382
44275,57390
44286,57394
44270,57388
44277,57397
44274,57398
44272,57385
44276,57388
44296,57391
44270,57391
44286,57407
44282,57398
44273,57395
44290,57402
44286,57403
44293,57402
44290,57403
44292,57398
44294,57397
44276,57399
44287,57405
44286,57403
44286,57413
44295,57412
44296,57406
44294,57411
44285,57412
44286,57406
44292,57429
44295,57401
44284,57433
44295,57430
44299,57446
44281,57435
44281,57422
44288,57434
44286,57434
44296,57428
44305,57454
44304,57440
44297,57427
44292,57434
44295,57461
44297,57458
44296,57457
44294,57440
44310,57456
44302,57457
44311,57464
44294,57460
44300,57473
44308,57455
44309,57451
44313,57466
44306,57467
44311,57461
44303,57458
44320,57487
44312,57484
44289,57482
44312,57492
44317,57501
44318,57497
44323,57498
44319,57502
44311,57504
44320,57509
44315,57501
44322,57504
44318,57523
44319,57499
44334,57506
44325,57512
44334,57533
44334,57515
44317,57532
44336,57525
44315,57525
44328,57535
44336,57527
44322,57538
44324,57527
44335,57547
44325,57553
44318,57552
44327,57533
44334,57540
44306,57506
44323,57497
44318,57482
44313,57470
44302,57455
44306,57457
44309,57430
44311,57427
44299,57432
44293,57440
44309,57450
44309,57446
44287,57439
44307,57447
44293,57453
44311,57436
44310,57438
44305,57447
44299,57431
44318,57428
44302,57443
44306,57436
44298,57419
44317,57415
44310,57419
44305,57412
44286,57414
44286,57411
44297,57421
44289,57423
44301,57415
44311,57419
44304,57425
44293,57429
44298,57416
44301,57428
44317,57414
44307,57431
44311,57430
44288,57423
44294,57414
44303,57420
44298,57418
44283,57409
44303,57424
44302,57423
44309,57418
44300,57410
44300,57419
44306,57421
44300,57423
44300,57409
44313,57433
44309,57426
44292,57434
44304,57439
44309,57427
44305,57438
44310,57414
44312,57433
44310,57441
44304,57427
44320,57446
44311,57443
44319,57459
44314,57456
44308,57431
44303,57462
44317,57444
44318,57444
44306,57440
44322,57437
44317,57452
44308,57434
44315,57459
44318,57457
44329,57465
44322,57443
44318,57479
44340,57477
44324,57470
44323,57484
44325,57499
44332,57484
44333,57501
44324,57484
44328,57491
44355,57491
44341,57477
44311,57487
44328,57485
44337,57488
44331,57492
44336,57488
44344,57506
44340,57492
44329,57495
44357,57508
44345,57506
44337,57524
44348,57508
44360,57520
44351,57516
44389,57518
44343,57525
44349,57526
44337,57537
44355,57526
44329,57465
44352,57567
44362,57558
44350,57559
44355,57534
44373,57548
44347,57558
44359,57559
44360,57583
44358,57562
44364,57563
44357,57578
44398,57582
44402,57573
44370,57570
44360,57594
44333,57598
44340,57592
44365,57599
44354,57598
44366,57595
44389,57605
44375,57595
44376,57612
44361,57586
44372,57567
44368,57567
44362,57548
44351,57524
44353,57515
44365,57510
44358,57503
44352,57494
44349,57528
44362,57510
44347,57516
44357,57517
44369,57511
44349,57516
44371,57530
44358,57536
44364,57532
44356,57520
44359,57522
44350,57542
44372,57518
44373,57539
44370,57539
44355,57527
44361,57524
44361,57504
44355,57523
44361,57518
44359,57520
44362,57537
44361,57535
44363,57540
44379,57529
44361,57539
44381,57547
44367,57548
44362,57551
44370,57539
44379,57546
44383,57530
44366,57532
44375,57559
44384,57530
44371,57536
44384,57539
44379,57547
44367,57532
44368,57548
44381,57541
44375,57546
44366,57557
44380,57571
44379,57554
44370,57557
44381,57569
44382,57575
44381,57554
44389,57566
44395,57577
44386,57564
44395,57575
44392,57572
44387,57580
44393,57590
44397,57591
44396,57575
44396,57588
44404,57582
44385,57584
44387,57579
44387,57589
44412,57592
44402,57609
44401,57599
44404,57596
44401,57590
44393,57600
44412,57606
44400,57608
44411,57603
44408,57625
44395,57626
44416,57641
44395,57614
44409,57625
44413,57639
44398,57625
44419,57622
44407,57624
44418,57637
44411,57634
44423,57632
44420,57645
44428,57651
44426,57648
44410,57649
44411,57657
44419,57661
44411,57659
44421,57657
44421,57675
44439,57665
44432,57651
44435,57678
44438,57684
44424,57675
44426,57699
44433,57673
44446,57692
44439,57703
44431,57699
44431,57701
44449,57703
44445,57708
44441,57692
44434,57711
44453,57704
44439,57666
44432,57668
44421,57658
44420,57658
44427,57637
44422,57624
44411,57625
44412,57617
44413,57625
44421,57634
44417,57628
44427,57637
44421,57644
44430,57633
44440,57658
44437,57651
44444,57647
44427,57653
44435,57649
44452,57657
44451,57659
44444,57657
44440,57648
44430,57639
44438,57641
44432,57642
44437,57644
44446,57644
44433,57642
44413,57666
44452,57649
44442,57655
44424,57662
44439,57662
44439,57644
44432,57664
44440,57683
44437,57674
44441,57684
44434,57678
44437,57673
44430,57686
44448,57672
44463,57682
44449,57663
44443,57677
44444,57668
44459,57675
44451,57671
44439,57691
44454,57673
44458,57695
44426,57697
44458,57686
44463,57692
44451,57706
44469,57698
44452,57710
44465,57701
44453,57700
44448,57700
44457,57711
44460,57713
44452,57730
44457,57717
44466,57725
44465,57712
44452,57719
44451,57741
44476,57726
44466,57731
44464,57738
44473,57730
44464,57726
44464,57735
44470,57745
44463,57742
44475,57737
44460,57736
44466,57761
44476,57762
44470,57748
44476,57765
44469,57784
44469,57774
44492,57767
44473,57765
44473,57764
44482,57762
44485,57775
44473,57771
44491,57792
44480,57789
44492,57782
44478,57777
44491,57795
44478,57794
44491,57798
44476,57805
44482,57794
44499,57827
44491,57832
44504,57791
44491,57779
44485,57799
44496,57804
44499,57824
44509,57817
44494,57834
44488,57835
44507,57826
44509,57834
44500,57839
44540,57826
44505,57840
44481,57846
44488,57839
44518,57849
44507,57837
44515,57841
44509,57858
44514,57849
44508,57866
44508,57858
44509,57850
44512,57860
44522,57864
44511,57859
44503,57865
44523,57867
44516,57864
44523,57867
44516,57849
44524,57862
44495,57832
44496,57823
44491,57817
44487,57804
44490,57801
44482,57792
44484,57788
44493,57782
44502,57800
44497,57786
44495,57804
44499,57814
44502,57805
44524,57804
44506,57825
44499,57821
44511,57817
44510,57806
44507,57809
44509,57802
44520,57804
44503,57800
44501,57801
44506,57803
44492,57805
44510,57811
44508,57816
44509,57800
44517,57799
44495,57808
44513,57819
44513,57823
44500,57824
44511,57817
44523,57850
44510,57837
44507,57839
44514,57825
44512,57828
44504,57834
44506,57832
44520,57830
44515,57823
44523,57827
44511,57830
44528,57813
44521,57817
44509,57840
44521,57831
44517,57839
44528,57849
44513,57828
44515,57837
44522,57833
44519,57852
44520,57849
44520,57850
44519,57850
44530,57862
44516,57861
44521,57864
44528,57851
44516,57867
44524,57865
44523,57860
44522,57851
44524,57876
44515,57868
44536,57864
44531,57871
44527,57879
44523,57868
44532,57879
44529,57885
44528,57874
44518,57882
44526,57876
44531,57884
44531,57873
44540,57883
44530,57897
44525,57894
44545,57892
44538,57884
44536,57909
44531,57893
44544,57908
44552,57905
44535,57898
44549,57899
44545,57902
44546,57902
44555,57905
44530,57936
44537,57908
44537,57897
44531,57920
44539,57916
44537,57928
44537,57918
44541,57923
44544,57919
44551,57920
44550,57922
44543,57921
44545,57919
44537,57934
44552,57926
44559,57930
44549,57935
44551,57934
44540,57947
44552,57940
44537,57936
44561,57952
44539,57947
44556,57950
44565,57951
44550,57939
44556,57956
44547,57950
44555,57949
44560,57962
44552,57975
44541,57958
44564,57955
44541,57949
44541,57929
44546,57906
44537,57898
44541,57895
44545,57876
44533,57879
44536,57870
44523,57853
44532,57864
44531,57872
44545,57865
44538,57867
44542,57865
44550,57871
44542,57861
44542,57882
44537,57875
44537,57864
44536,57889
44530,57875
44526,57874
44529,57875
44539,57851
44522,57857
44536,57852
44529,57845
44514,57858
44526,57855
44529,57853
44531,57874
44519,57863
44534,57853
44529,57868
44521,57863
44524,57868
44519,57848
44528,57852
44521,57863
44543,57866
44511,57857
44527,57864
44528,57856
44518,57847
44510,57847
44522,57865
44521,57861
44540,57858
44527,57844
44527,57858
44523,57853
44514,57874
44524,57853
44521,57867
44529,57847
44526,57855
44525,57861
44524,57858
44522,57873
44521,57864
44521,57860
44523,57854
44527,57862
44528,57872
44521,57856
44529,57868
44528,57856
44525,57862
44529,57892
44525,57855
44526,57875
44516,57867
44518,57865
44521,57862
44515,57862
44530,57859
44532,57863
44525,57867
44517,57867
44520,57873
44526,57866
44525,57879
44525,57877
44514,57874
44526,57869
44532,57890
44544,57919
44530,57883
44516,57840
44521,57848
44536,57894
44538,57890
44534,57904
44528,57884
44543,57902
44526,57891
44535,57878
44531,57900
44541,57891
44525,57895
44506,57900
44527,57895
44533,57898
44518,57901
44530,57892
44539,57906
44530,57891
44534,57914
44531,57903
44532,57902
44539,57906
44526,57919
44529,57901
44539,57910
44526,57915
44545,57907
44529,57935
44539,57918
44550,57909
44547,57931
44551,57933
44527,57919
44555,57929
44537,57924
44526,57933
44524,57944
44524,57939
44543,57918
44539,57911
44551,57906
44522,57888
44518,57877
44524,57852
44515,57823
44506,57826
44501,57819
44506,57808
44507,57795
44512,57794
44478,57803
44508,57809
44507,57790
44494,57789
44502,57802
44486,57792
44499,57787
44504,57793
44503,57796
44490,57790
44486,57788
44482,57775
44481,57749
44488,57760
44469,57757
44487,57742
44478,57739
44471,57741
44457,57730
44478,57730
44464,57726
44481,57729
44473,57732
44468,57741
44466,57742
44470,57729
44475,57720
44469,57725
44469,57719
44477,57725
44468,57722
44452,57707
44466,57723
44453,57693
44466,57704
44465,57692
44457,57710
44465,57695
44452,57685
44446,57691
44444,57688
44442,57668
44456,57692
44447,57675
44442,57666
44458,57696
44429,57678
44449,57685
44441,57687
44446,57683
44461,57683
44448,57678
44462,57687
44445,57688
44441,57680
44439,57678
44447,57683
44452,57669
44429,57674
44440,57663
44441,57677
44436,57674
44446,57691
44441,57664
44430,57659
44440,57656
44444,57662
44442,57670
44447,57680
44430,57671
44436,57673
44426,57662
44438,57667
44429,57660
44434,57633
44439,57653
44438,57664
44435,57661
44428,57658
44416,57659
44430,57660
44436,57658
44435,57657
44431,57673
44425,57672
44428,57660
44413,57656
44424,57667
44423,57647
44438,57657
44408,57671
44422,57675
44430,57663
44430,57669
44430,57687
44426,57670
44412,57654
44437,57666
44437,57666
44427,57674
44424,57672
44413,57679
44423,57680
44437,57669
44431,57670
44412,57679
44429,57670
44417,57673
44422,57667
44401,57687
44426,57675
44416,57683
44423,57677
44429,57701
44419,57687
44427,57694
44443,57690
44446,57695
44423,57712
44424,57680
44421,57688
44430,57702
44435,57699
44426,57695
44429,57690
44414,57701
44433,57692
44408,57679
44397,57663
44401,57633
44394,57610
44385,57595
44392,57589
44378,57562
44373,57547
44378,57533
44354,57532
44362,57528
44361,57544
44367,57526
44374,57525
44370,57525
44354,57541
44360,57526
44351,57519
44354,57524
44360,57512
44355,57520
44352,57486
44344,57503
44352,57484
44355,57460
44337,57458
44341,57470
44339,57452
44337,57431
44337,57444
44326,57453
44341,57439
44325,57454
44317,57453
44314,57451
44335,57451
44336,57445
44326,57443
44314,57426
44322,57425
44323,57427
44319,57422
44306,57407
44318,57399
44321,57407
44305,57388
44304,57394
44304,57371
44299,57388
44297,57381
44326,57371
44313,57368
44302,57380
44301,57371
44296,57364
44309,57359
44285,57363
44323,57380
44295,57363
44283,57358
44295,57366
44305,57368
44298,57382
44280,57364
44284,57343
44275,57316
44283,57350
44277,57338
44278,57326
44267,57359
44278,57350
44275,57352
44265,57356
44287,57341
44304,57360
44304,57350
44265,57337
44253,57331
44234,57338
44269,57350
44275,57337
44277,57347
44262,57348
44272,57354
44269,57349
44265,57346
44271,57346
44273,57341
44265,57341
44263,57348
44274,57330
44265,57331
44275,57343
44260,57350
44267,57326
44257,57332
44269,57338
44274,57341
44278,57334
44254,57338
44257,57330
44257,57347
44257,57338
44263,57337
44260,57330
44236,57351
44244,57349
44262,57351
44264,57354
44256,57342
44255,57343
44259,57357
44247,57341
44254,57352
44245,57358
44245,57352
44241,57359
44246,57358
44268,57360
44245,57344
44241,57314
44225,57302
44236,57261
44225,57261
44193,57221
44200,57212
44192,57196
44199,57184
44184,57180
44181,57166
44158,57151
44171,57157
44173,57170
44165,57146
44170,57142
44177,57140
44169,57136
44160,57137
44159,57117
44163,57119
44156,57095
44155,57094
44144,57077
44143,57069
44146,57060
44133,57034
44119,57043
44141,57034
44136,57037
44135,57018
44129,57022
44127,57018
44125,57013
44127,57017
44109,57015
44136,56992
44112,56986
44119,56998
44113,56993
44100,56975
44096,56966
44112,56955
44118,56954
44097,56949
44081,56950
44105,56944
44091,56939
44088,56920
44096,56928
44089,56915
44097,56903
44077,56902
44095,56909
44083,56911
44082,56903
44082,56902
44077,56898
44077,56899
44073,56887
44059,56903
44087,56892
44081,56896
44058,56894
44074,56882
44076,56878
44066,56881
44085,56882
44069,56873
44066,56889
44067,56854
44065,56859
44078,56871
44065,56868
44062,56871
44073,56867
44068,56869
44078,56854
44068,56864
44054,56852
44071,56864
44053,56864
44069,56850
44052,56861
44043,56868
44059,56861
44061,56838
44058,56848
44061,56844
44050,56867
44045,56870
44047,56836
44046,56849
44054,56862
44052,56859
44060,56861
44057,56856
44044,56868
44039,56855
44052,56853
44051,56868
44056,56872
44054,56865
44047,56852
44058,56867
44044,56881
44048,56876
44042,56886
44046,56879
44074,56867
44050,56868
44046,56875
44042,56873
44044,56873
44043,56875
44058,56880
44052,56881
44038,56894
44049,56892
44063,56895
44040,56876
44057,56890
44053,56894
44043,56895
44070,56899
44040,56899
44067,56901
44068,56902
44057,56896
44080,56895
44066,56896
44067,56891
44062,56891
44046,56860
44045,56863
44029,56814
44028,56815
44019,56781
44034,56771
44004,56762
44009,56760
44012,56737
44021,56726
44011,56741
44004,56726
44005,56726
43998,56715
43993,56720
43998,56713
44000,56703
44001,56710
43987,56695
44003,56689
43996,56672
43968,56670
43978,56673
43983,56628
43991,56629
43984,56631
43972,56621
43979,56613
43976,56630
43973,56625
43979,56632
43974,56636
43976,56619
43979,56623
43993,56630
43973,56646
43974,56615
43961,56625
43977,56625
43975,56598
43965,56601
43964,56608
43973,56616
43982,56611
43954,56611
43965,56612
43963,56599
43963,56606
43963,56592
43964,56602
43937,56592
43973,56603
43962,56629
43975,56645
43964,56600
43958,56575
43962,56594
43964,56607
43961,56598
43974,56615
43972,56610
43969,56624
43979,56606
43994,56617
43979,56609
43974,56618
43968,56635
43951,56630
43964,56645
43975,56622
43964,56636
43978,56640
43981,56645
43971,56636
43975,56645
43990,56634
43991,56642
43986,56645
44003,56638
43980,56643
43987,56658
43999,56664
44003,56666
43991,56647
44003,56671
44002,56678
43999,56688
44003,56684
43989,56685
43990,56696
44001,56671
44000,56683
43998,56694
44022,56694
44003,56694
44014,56706
44003,56707
43994,56713
44009,56728
44026,56721
44015,56718
44023,56718
44013,56722
44026,56736
44022,56724
44029,56729
44021,56741
44020,56757
44030,56756
44027,56757
44036,56749
44054,56760
44029,56763
44019,56774
44063,56787
44037,56781
44048,56771
44042,56781
44049,56781
44050,56793
44052,56804
44064,56812
44049,56802
44060,56802
44051,56816
44060,56816
44065,56827
44072,56837
44068,56831
44059,56843
44053,56834
44069,56846
44073,56847
44082,56843
44070,56827
44062,56816
44041,56800
44050,56796
44054,56797
44048,56787
44034,56756
44041,56747
44036,56757
44046,56759
44045,56755
44053,56743
44048,56763
44047,56767
44055,56772
44058,56769
44049,56778
44051,56781
44045,56779
44050,56780
44049,56767
44043,56764
44048,56768
44058,56752
44066,56769
44043,56744
44047,56735
44040,56763
44034,56752
44069,56769
44070,56764
44061,56760
44057,56778
44058,56769
44059,56755
44062,56777
44072,56774
44053,56772
44075,56778
44067,56779
44055,56767
44046,56782
44074,56767
44064,56771
44058,56777
44064,56777
44059,56773
44050,56780
44065,56788
44054,56787
44059,56789
44064,56787
44067,56793
44063,56790
44066,56797
44077,56818
44073,56806
44082,56804
44063,56806
44072,56805
44076,56810
44082,56813
44087,56822
44090,56822
44069,56820
44073,56809
44074,56833
44075,56834
44077,56835
44097,56836
44090,56835
44103,56849
44088,56833
44080,56843
44088,56839
44086,56862
44102,56845
44086,56856
44079,56865
44089,56850
44095,56855
44103,56859
44103,56855
44106,56877
44102,56882
44100,56885
44101,56872
44112,56876
44122,56877
44117,56862
44112,56892
44104,56904
44113,56896
44108,56896
44109,56905
44114,56897
44111,56906
44105,56914
44113,56916
44109,56914
44126,56924
44126,56934
44118,56929
44124,56924
44114,56933
44114,56938
44125,56923
44130,56934
44129,56944
44129,56941
44131,56952
44138,56943
44122,56965
44131,56980
44131,56968
44128,56961
44141,56979
44139,56984
44127,56968
44128,56981
44137,56985
44141,56970
44149,56979
44140,56991
44140,56996
44141,56999
44150,57016
44141,57007
44149,56997
44142,57005
44132,56979
44132,56959
44120,56966
44122,56947
44113,56936
44117,56927
44112,56916
44107,56911
44106,56930
44109,56929
44123,56906
44125,56927
44124,56929
44139,56936
44127,56933
44133,56938
44121,56903
44112,56915
44120,56920
44115,56908
44111,56912
44117,56909
44109,56915
44114,56896
44110,56905
44121,56906
44136,56891
44110,56899
44114,56899
44114,56909
44113,56917
44124,56916
44114,56911
44123,56895
44125,56905
44120,56939
44131,56920
44120,56933
44119,56908
44121,56891
44129,56907
44133,56926
44130,56904
44152,56919
44109,56926
44119,56909
44092,56909
44107,56913
44117,56922
44116,56921
44110,56931
44116,56912
44109,56917
44112,56920
44114,56919
44114,56927
44133,56932
44128,56926
44125,56943
44119,56930
44123,56925
44116,56936
44131,56933
44114,56936
44118,56942
44122,56939
44132,56940
44120,56954
44117,56959
44118,56967
44122,56945
44127,56956
44124,56955
44121,56963
44107,56954
44128,56976
44132,56970
44120,56956
44125,56974
44124,56951
44129,56969
44131,56971
44130,56986
44128,56970
44128,56969
44130,56989
44149,56983
44126,56979
44142,56988
44130,56984
44129,56990
44153,57006
44139,57004
44137,57009
44134,57013
44143,57000
44131,57012
44132,57014
44144,57025
44136,57021
44154,57014
44157,57030
44136,57024
44148,57039
44138,57037
44147,57035
44138,57044
44149,57027
44151,57059
44153,57059
44151,57054
44156,57065
44144,57074
44151,57054
44161,57075
44160,57072
44168,57062
44177,57069
44152,57068
44145,57083
44173,57079
44164,57085
44160,57096
44167,57100
44164,57095
44154,57096
44161,57097
44171,57111
44173,57118
44176,57114
44174,57120
44183,57121
44161,57116
44183,57127
44163,57108
44171,57108
44167,57109
44150,57083
44165,57072
44139,57064
44140,57039
44160,57027
44137,57026
44140,57046
44146,57023
44142,57037
44144,57024
44156,57030
44147,57037
44148,57042
44139,57056
44142,57031
44143,57038
44147,57035
44135,57048
44137,57029
44151,57023
44140,57015
44148,57031
44136,57031
44131,57015
44144,57015
44137,57043
44133,57011
44133,57025
44133,57014
44141,57013
44142,57035
44126,57029
44138,57012
44133,57013
44145,57029
44156,57037
44146,57022
44132,57032
44129,57018
44127,57001
44143,57019
44142,57021
44139,57021
44126,57016
44136,57000
44129,57007
44142,57006
44125,57013
44140,57026
44144,57014
44138,57009
44140,57022
44143,57027
44148,57017
44136,57036
44144,57038
44149,57039
44124,57023
44134,57037
44133,57022
44146,57033
44144,57057
44147,57035
44123,57045
44147,57039
44147,57045
44145,57038
44148,57033
44146,57030
44134,57063
44150,57048
44133,57062
44144,57056
44148,57052
44152,57061
44143,57037
44143,57057
44138,57062
44153,57065
44133,57062
44132,57060
44160,57075
44151,57081
44147,57064
44145,57086
44152,57075
44137,57086
44157,57086
44153,57103
44171,57105
44141,57095
44169,57078
44158,57084
44155,57081
44171,57106
44160,57095
44152,57102
44176,57113
44147,57117
44170,57120
44145,57123
44171,57112
44172,57120
44156,57117
44172,57131
44174,57124
44164,57136
44167,57124
44156,57119
44173,57147
44170,57155
44165,57143
44181,57139
44179,57160
44189,57135
44187,57142
44174,57148
44190,57159
44187,57154
44183,57151
44195,57177
44196,57169
44187,57177
44188,57170
44201,57160
44186,57189
44185,57181
44193,57172
44184,57176
44171,57151
44184,57142
44174,57119
44171,57123
44170,57101
44172,57092
44168,57084
44166,57102
44154,57078
44166,57102
44160,57103
44174,57072
44159,57071
44158,57075
44163,57081
44163,57093
44147,57088
44169,57083
44166,57071
44152,57077
44152,57064
44182,57063
44176,57051
44148,57044
44141,57061
44187,57177
44138,57039
44145,57050
44157,57056
44146,57056
44155,57055
44148,57050
44146,57061
44155,57053
44161,57049
44159,57062
44156,57049
44159,57057
44158,57057
44159,57056
44153,57061
44141,57045
44159,57041
44132,57051
44156,57042
44144,57038
44161,57039
44160,57048
44155,57050
44138,57061
44151,57046
44157,57050
44155,57054
44153,57051
44154,57067
44147,57051
44172,57055
44147,57065
44161,57072
44150,57044
44157,57075
44158,57061
44172,57074
44155,57053
44165,57056
44154,57060
44160,57072
44162,57069
44169,57057
44160,57077
44167,57072
44160,57076
44161,57071
44147,57077
44154,57080
44163,57072
44159,57087
44167,57087
44165,57098
44185,57105
44158,57105
44172,57114
44167,57100
44179,57110
44183,57116
44171,57118
44172,57114
44177,57107
44170,57120
44179,57128
44178,57125
44173,57110
44174,57126
44183,57139
44181,57126
44185,57148
44175,57147
44183,57149
44184,57150
44185,57147
44178,57135
44185,57161
44190,57167
44177,57169
44198,57166
44202,57166
44189,57165
44193,57179
44194,57172
44197,57188
44202,57185
44201,57192
44201,57195
44214,57197
44211,57197
44223,57195
44209,57208
44197,57205
44217,57208
44204,57216
44209,57209
44211,57212
44222,57217
44223,57225
44227,57239
44226,57229
44221,57219
44227,57238
44221,57252
44219,57235
44217,57264
44237,57250
44230,57255
44232,57248
44228,57231
44206,57224
44197,57203
44211,57200
44207,57178
44201,57164
44192,57141
44191,57174
44193,57161
44194,57161
44198,57152
44188,57156
44215,57171
44210,57163
44208,57179
44207,57172
44209,57167
44210,57173
44204,57165
44202,57170
44201,57170
44203,57166
44210,57162
44212,57154
44209,57157
44203,57137
44218,57150
44213,57157
44225,57176
44228,57179
44223,57180
44231,57186
44255,57205
44242,57230
44255,57245
44257,57249
44280,57273
44276,57272
44294,57282
44287,57292
44296,57292
44287,57300
44286,57295
44278,57296
44280,57275
44283,57301
44285,57308
44288,57281
44285,57274
44279,57271
44267,57289
44263,57273
44260,57268
44256,57262
44252,57245
44252,57241
44246,57248
44231,57238
44240,57233
44238,57239
44237,57232
44227,57225
44233,57233
44224,57218
44224,57224
44207,57228
44218,57222
44225,57221
44220,57209
44217,57234
44227,57235
44210,57221
44212,57214
44222,57218
44216,57230
44226,57210
44218,57213
44241,57210
44223,57214
44217,57222
44219,57238
44226,57241
44227,57238
44229,57245
44220,57233
44229,57239
44213,57249
44234,57242
44221,57252
44226,57251
44237,57256
44235,57238
44230,57254
44230,57248
44235,57260
44246,57281
44222,57257
44224,57252
44246,57270
44241,57286
44229,57276
44237,57306
44234,57281
44254,57280
44228,57293
44238,57282
44259,57265
44256,57295
44243,57291
44240,57293
44246,57299
44251,57303
44254,57298
44251,57313
44248,57312
44234,57328
44271,57323
44246,57320
44245,57333
44260,57330
44236,57335
44254,57321
44247,57311
44242,57316
44255,57339
44249,57348
44266,57336
44266,57349
44255,57360
44274,57352
44251,57350
44265,57339
44252,57320
44257,57307
44233,57302
44237,57288
44222,57273
44224,57276
44230,57279
44232,57279
44236,57272
44225,57281
44242,57280
44241,57285
44249,57280
44248,57291
44241,57292
44244,57293
44251,57314
44240,57306
44241,57295
44241,57306
44252,57296
44242,57297
44242,57295
44239,57277
44240,57288
44242,57291
44246,57288
44248,57311
44251,57314
44254,57288
44251,57329
44259,57312
44252,57316
44254,57329
44252,57306
44229,57311
44262,57316
44248,57312
44247,57324
44255,57321
44249,57315
44246,57317
44248,57319
44256,57317
44261,57311
44256,57316
44256,57330
44258,57325
44264,57317
44255,57324
44260,57319
44271,57329
44256,57323
44262,57343
44275,57339
44253,57348
44248,57351
44269,57354
44251,57342
44265,57343
44265,57363
44281,57359
44272,57352
44282,57374
44255,57346
44265,57376
44274,57369
44276,57372
44264,57368
44274,57363
44268,57369
44268,57378
44276,57385
44268,57387
44280,57384
44283,57379
44285,57400
44272,57402
44255,57396
44278,57380
44282,57408
44283,57408
44277,57386
44267,57403
44290,57408
44285,57415
44294,57417
44267,57405
44293,57420
44281,57403
44296,57429
44281,57403
44280,57428
44286,57425
44288,57431
44298,57424
44286,57444
44301,57439
44299,57436
44292,57439
44302,57434
44295,57450
44300,57448
44304,57441
44309,57462
44310,57456
44299,57439
44296,57447
44291,57465
44309,57469
44304,57466
44306,57472
44312,57460
44306,57463
44298,57484
44297,57487
44312,57483
44311,57482
44320,57483
44312,57480
44308,57487
44308,57487
44311,57491
44315,57499
44316,57504
44328,57501
44332,57505
44323,57515
44314,57513
44314,57509
44325,57513
44311,57511
44311,57478
44290,57466
44309,57444
44312,57428
44307,57432
44290,57426
44297,57433
44303,57421
44297,57432
44297,57434
44296,57440
44302,57426
44303,57438
44308,57431
44303,57451
44300,57447
44309,57443
44292,57458
44306,57448
44309,57447
44310,57459
44299,57445
44291,57445
44299,57421
44291,57423
44305,57432
44296,57430
44295,57433
44298,57420
44296,57436
44307,57437
44302,57440
44321,57427
44301,57435
44305,57430
44306,57445
44307,57449
44312,57443
44291,57435
44305,57437
44297,57453
44314,57435
44307,57447
44300,57453
44300,57440
44308,57444
44297,57439
44306,57444
44298,57452
44298,57430
44296,57445
44302,57442
44318,57445
44308,57454
44316,57460
44295,57448
44303,57462
44309,57440
44314,57459
44314,57457
44314,57469
44321,57476
44310,57472
44304,57464
44324,57475
44312,57469
44310,57463
44313,57490
44311,57483
44322,57479
44311,57482
44327,57485
44312,57490
44335,57479
44330,57493
44330,57477
44325,57488
44325,57487
44333,57472
44315,57484
44319,57491
44334,57502
44315,57513
44323,57524
44328,57493
44325,57510
44322,57516
44327,57499
44329,57509
44328,57502
44336,57507
44335,57508
44333,57512
44338,57512
44325,57514
44325,57526
44334,57512
44322,57524
44338,57531
44355,57533
44336,57539
44349,57563
44341,57542
44355,57497
44328,57519
44350,57530
44350,57556
44349,57571
44343,57533
44325,57550
44347,57545
44349,57539
44358,57548
44366,57569
44346,57547
44325,57562
44355,57569
44332,57576
44345,57573
44344,57587
44343,57563
44351,57579
44363,57572
44359,57561
44360,57581
44358,57597
44355,57576
44363,57589
44357,57586
44362,57565
44356,57558
44353,57560
44326,57530
44330,57535
44326,57501
44336,57486
44317,57482
44327,57477
44323,57463
44318,57465
44320,57470
44320,57481
44325,57478
44317,57475
44331,57481
44332,57487
44325,57488
44334,57505
44327,57474
44314,57482
44329,57481
44333,57479
44324,57464
44329,57460
44313,57452
44320,57454
44310,57446
44328,57444
44322,57427
44310,57448
44319,57433
44328,57446
44333,57451
44315,57452
44328,57456
44320,57439
44319,57448
44309,57452
44307,57439
44323,57435
44318,57434
44299,57416
44318,57416
44325,57440
44327,57435
44299,57438
44317,57415
44291,57439
44294,57421
44320,57430
44315,57429
44308,57436
44303,57429
44319,57429
44318,57423
44310,57427
44319,57432
44326,57439
44318,57430
44306,57437
44296,57435
44313,57425
44317,57431
44331,57425
44319,57433
44324,57431
44325,57426
44319,57448
44324,57429
44316,57434
44319,57418
44319,57431
44311,57436
44317,57421
44310,57443
44316,57422
44317,57421
44329,57423
44316,57434
44326,57447
44326,57439
44312,57433
44307,57426
44317,57440
44327,57432
44319,57431
44310,57453
44326,57424
44324,57433
44343,57440
44324,57446
44316,57424
44322,57462
44328,57449
44328,57432
44328,57442
44321,57452
44324,57447
44322,57451
44329,57457
44332,57449
44327,57443
44336,57473
44343,57455
44321,57453
44331,57455
44326,57448
44317,57458
44322,57458
44333,57440
44324,57464
44339,57471
44325,57466
44332,57481
44335,57470
44336,57470
44346,57479
44326,57486
44336,57471
44345,57479
44335,57479
44331,57491
44336,57476
44345,57483
44339,57482
44347,57504
44323,57479
44356,57475
44347,57496
44350,57456
44316,57439
44324,57429
44312,57412
44317,57388
44309,57393
44299,57371
44299,57351
44297,57347
44282,57323
44280,57336
44292,57336
44295,57329
44291,57336
44296,57346
44276,57329
44287,57327
44282,57329
44286,57332
44286,57308
44277,57303
44279,57294
44273,57288
44286,57291
44260,57267
44246,57258
44266,57255
44263,57243
44262,57252
44247,57241
44257,57245
44258,57233
44239,57254
44272,57247
44256,57238
44263,57236
44247,57233
44255,57233
44275,57233
44251,57218
44245,57219
44239,57219
44248,57201
44242,57192
44258,57191
44235,57199
44237,57194
44239,57197
44235,57197
44253,57178
44242,57187
44240,57192
44238,57182
44253,57171
44237,57180
44236,57181
44246,57179
44234,57176
44241,57173
44242,57165
44243,57174
44233,57182
44237,57162
44236,57161
44232,57183
44224,57154
44222,57160
44224,57163
44237,57180
44231,57162
44239,57159
44249,57170
44231,57165
44225,57143
44238,57158
44221,57160
44222,57161
44223,57160
44222,57169
44213,57147
44233,57166
44228,57172
44226,57165
44224,57156
44234,57154
44224,57170
44222,57167
44227,57186
44226,57139
44211,57142
44226,57156
44237,57154
44216,57174
44221,57178
44224,57170
44223,57164
44221,57178
44226,57175
44249,57174
44241,57163
44215,57177
44210,57183
44228,57181
44228,57181
44229,57181
44225,57170
44227,57176
44224,57181
44225,57188
44227,57197
44235,57176
44233,57196
44226,57190
44222,57180
44232,57201
44231,57207
44240,57194
44235,57199
44227,57209
44226,57212
44244,57213
44235,57219
44225,57211
44230,57218
44231,57206
44224,57203
44229,57219
44232,57211
44240,57206
44221,57204
44221,57178
44209,57169
44197,57150
44197,57131
44193,57093
44188,57104
44177,57076
44175,57070
44177,57072
44172,57043
44168,57062
44174,57049
44173,57043
44168,57052
44178,57038
44167,57056
44169,57042
44171,57034
44175,57042
44164,57039
44162,57014
44156,57020
44159,57002
44156,56987
44155,56993
44157,56982
44137,56986
44140,56981
44147,56968
44143,56968
44139,56980
44132,56950
44148,56952
44141,56961
44149,56963
44141,56965
44122,56956
44119,56937
44138,56962
44141,56937
44138,56945
44115,56943
44120,56931
44108,56927
44121,56931
44121,56916
44106,56922
44127,56921
44126,56906
44120,56897
44125,56905
44118,56907
44119,56887
44123,56889
44109,56894
44106,56889
44120,56900
44100,56904
44108,56899
44111,56883
44110,56890
44106,56881
44106,56906
44108,56883
44101,56889
44104,56889
44116,56894
44095,56882
44105,56894
44105,56888
44102,56886
44100,56882
44107,56883
44116,56872
44114,56893
44100,56875
44074,56882
44091,56886
44091,56879
44110,56876
44104,56882
44089,56895
44093,56905
44090,56881
44091,56895
44100,56876
44099,56885
44103,56886
44089,56889
44097,56895
44086,56884
44093,56889
44100,56894
44095,56900
44108,56893
44113,56888
44088,56880
44099,56907
44101,56897
44098,56895
44091,56913
44100,56915
44090,56917
44097,56915
44100,56901
44108,56914
44107,56915
44106,56906
44110,56917
44096,56901
44103,56912
44106,56928
44099,56917
44102,56923
44102,56913
44105,56934
44113,56933
44110,56929
44114,56933
44087,56921
44083,56911
44077,56904
44087,56863
44078,56839
44071,56821
44069,56807
44075,56800
44042,56778
44054,56758
44048,56754
44039,56742
44045,56729
44034,56745
44042,56735
44031,56730
44028,56733
44044,56722
44039,56738
44023,56711
44043,56716
44024,56695
44005,56699
44023,56678
44006,56670
44025,56645
44009,56642
43995,56631
44009,56634
44001,56637
43989,56625
44014,56610
44008,56610
43996,56606
44000,56599
44009,56621
43990,56597
44003,56601
43998,56599
43993,56584
43991,56585
43989,56575
43986,56574
43992,56584
43989,56560
43997,56566
43982,56569
43986,56558
43995,56546
43987,56555
43983,56549
43985,56540
43986,56540
43987,56542
43985,56526
43983,56541
43973,56557
43985,56536
43996,56535
43975,56542
43984,56531
43982,56539
43995,56532
43979,56530
43969,56539
43990,56519
43989,56527
43982,56523
43978,56524
43974,56523
43967,56517
43982,56512
43981,56521
43982,56533
43984,56520
43974,56531
43975,56542
43984,56534
43967,56538
43968,56550
43979,56547
43979,56554
43984,56498
43989,56546
43981,56516
43988,56547
43976,56533
43979,56548
43983,56558
43985,56542
43977,56526
43990,56552
44004,56546
43992,56545
43981,56561
43962,56554
43969,56547
43989,56564
43976,56566
43988,56553
43992,56547
43996,56583
43989,56557
43988,56574
43987,56567
43981,56578
44008,56575
44000,56583
44007,56576
43991,56574
44022,56604
44017,56587
44005,56579
44008,56602
44022,56603
44013,56597
44011,56603
44012,56616
44012,56600
44021,56615
44024,56626
44018,56612
44016,56604
44031,56616
44018,56622
44035,56637
44036,56636
44025,56637
44050,56622
44045,56649
44036,56651
44036,56656
44039,56643
44032,56635
44027,56624
44033,56605
44016,56605
44009,56555
44014,56545
44003,56528
43993,56512
43986,56484
43985,56484
43993,56481
43982,56468
43989,56454
43985,56449
43990,56447
43994,56448
44003,56442
44002,56448
43995,56437
43987,56432
43987,56433
43989,56426
44002,56410
43996,56415
43994,56384
43993,56382
43985,56383
43977,56359
43969,56367
43984,56368
43967,56365
43990,56359
43987,56376
44000,56352
43986,56357
44000,56342
43996,56361
43999,56346
43988,56354
43970,56353
43995,56337
43985,56346
43995,56328
43983,56337
43991,56331
43989,56315
43997,56314
43994,56320
43995,56324
43981,56308
43992,56332
43981,56296
43989,56318
44014,56306
44007,56300
44007,56301
44006,56306
44006,56326
43994,56310
44011,56323
44006,56320
44004,56316
44004,56329
44010,56327
44019,56329
44024,56330
44024,56329
44020,56329
44040,56319
44029,56325
44044,56326
44038,56326
44035,56339
44034,56334
44036,56360
44044,56336
44052,56335
44047,56342
44050,56338
44066,56360
44059,56350
44054,56349
44053,56349
44063,56355
44064,56360
44067,56370
44067,56367
44066,56366
44075,56369
44090,56390
44089,56389
44078,56369
44080,56386
44071,56391
44076,56388
44090,56382
44094,56399
44090,56404
44097,56406
44105,56399
44101,56414
44115,56387
44116,56401
44110,56420
44114,56408
44124,56424
44113,56408
44132,56433
44122,56419
44128,56429
44136,56420
44134,56442
44132,56447
44134,56442
44137,56437
44138,56428
44146,56455
44144,56458
44148,56466
44159,56471
44165,56476
44156,56479
44152,56471
44170,56471
44166,56482
44166,56484
44187,56469
44165,56470
44161,56446
44176,56452
44151,56422
44141,56389
44151,56368
44136,56360
44129,56346
44129,56338
44121,56315
44134,56311
44133,56314
44138,56312
44142,56327
44137,56326
44144,56303
44150,56301
44148,56331
44151,56303
44160,56318
44159,56308
44144,56302
44155,56279
44156,56288
44138,56283
44151,56247
44164,56245
44154,56254
44148,56249
44146,56250
44139,56252
44159,56261
44172,56265
44156,56251
44162,56262
44169,56254
44149,56258
44165,56258
44167,56247
44161,56264
44175,56249
44168,56258
44177,56243
44166,56238
44174,56258
44165,56236
44156,56242
44173,56243
44168,56248
44183,56242
44198,56239
44196,56236
44182,56251
44188,56247
44193,56257
44204,56259
44202,56253
44204,56268
44190,56261
44178,56266
44199,56268
44210,56273
44213,56292
44215,56290
44200,56246
44221,56242
44220,56268
44233,56266
44219,56299
44235,56282
44223,56301
44229,56291
44230,56298
44245,56295
44257,56308
44241,56309
44234,56317
44223,56318
44258,56313
44247,56316
44253,56325
44271,56316
44270,56330
44266,56336
44281,56339
44261,56336
44284,56347
44264,56337
44272,56339
44282,56350
44274,56343
44288,56355
44287,56366
44301,56381
44291,56384
44304,56377
44297,56372
44308,56383
44291,56399
44297,56390
44303,56392
44312,56403
44304,56403
44310,56411
44319,56401
44323,56408
44320,56428
44318,56407
44331,56420
44335,56423
44329,56441
44330,56438
44333,56456
44330,56457
44326,56464
44340,56454
44342,56457
44347,56465
44346,56467
44356,56485
44342,56489
44361,56478
44353,56480
44362,56491
44367,56487
44368,56466
44331,56461
44352,56427
44323,56424
44327,56402
44320,56383
44338,56370
44298,56359
44327,56346
44316,56338
44319,56324
44327,56330
44307,56353
44320,56320
44328,56336
44322,56319
44316,56318
44325,56327
44320,56336
44343,56314
44317,56301
44326,56300
44317,56312
44317,56292
44320,56293
44318,56272
44308,56287
44307,56259
44313,56274
44311,56263
44322,56265
44316,56256
44315,56275
44327,56264
44331,56262
44324,56281
44320,56267
44317,56275
44327,56277
44324,56275
44336,56269
44334,56264
44335,56249
44326,56268
44344,56260
44333,56246
44340,56267
44343,56243
44344,56269
44333,56271
44348,56256
44340,56265
44345,56284
44340,56277
44339,56266
44347,56267
44344,56263
44350,56286
44355,56275
44359,56299
44366,56281
44357,56297
44350,56292
44367,56310
44367,56300
44372,56301
44361,56310
44368,56306
44372,56314
44383,56309
44370,56320
44382,56311
44385,56323
44392,56327
44371,56320
44389,56340
44397,56339
44384,56326
44388,56349
44393,56354
44393,56361
44388,56349
44386,56371
44406,56358
44397,56377
44410,56375
44402,56382
44406,56402
44409,56396
44426,56394
44422,56406
44423,56394
44420,56415
44426,56406
44432,56412
44420,56418
44439,56417
44431,56439
44429,56428
44426,56437
44442,56443
44452,56445
44436,56446
44443,56449
44446,56466
44450,56476
44456,56475
44435,56483
44452,56470
44461,56471
44448,56485
44466,56485
44454,56500
44457,56518
44472,56511
44462,56518
44467,56517
44470,56532
44484,56531
44486,56525
44481,56540
44474,56550
44476,56541
44477,56544
44483,56571
44481,56575
44485,56574
44481,56581
44499,56572
44484,56587
44498,56588
44476,56566
44485,56567
44473,56526
44485,56528
44460,56513
44459,56497
44471,56476
44472,56481
44456,56459
44466,56494
44462,56474
44456,56492
44459,56488
44468,56489
44474,56495
44470,56495
44478,56496
44473,56500
44474,56506
44480,56505
44479,56509
44482,56500
44477,56491
44479,56498
44464,56485
44471,56473
44461,56486
44478,56479
44470,56500
44473,56493
44479,56489
44463,56501
44481,56512
44494,56532
44512,56523
44576,56595
44623,56640
44644,56670
44495,56558
44448,56519
44405,56441
44381,56429
44373,56422
44374,56408
44325,56408
44318,56400
44306,56373
44285,56376
44268,56368
44260,56367
44239,56324
44237,56310
44196,56310
44209,56264
44184,56276
44175,56270
44187,56256
44172,56260
44156,56250
44155,56253
44173,56246
44153,56252
44127,56239
44109,56249
44104,56233
44097,56239
44110,56239
44118,56215
44116,56221
44105,56211
44111,56225
44095,56216
44110,56213
44098,56186
44100,56203
44118,56204
44096,56200
44094,56214
44100,56199
44094,56207
44083,56199
44075,56213
44091,56192
44080,56194
44085,56193
44073,56202
44079,56216
44082,56189
44069,56200
44071,56191
44084,56189
44079,56192
44074,56200
44076,56205
44063,56189
44063,56187
44064,56181
44063,56198
44059,56188
44059,56193
44056,56188
44051,56200
44044,56194
44057,56183
44068,56192
44045,56187
44051,56194
44045,56188
44042,56178
44063,56198
44048,56189
44045,56172
44037,56172
44030,56140
44017,56122
44005,56119
43992,56079
44001,56080
43985,56047
43968,56036
43982,56033
43971,56027
43970,56035
43967,56016
43958,56022
43961,56019
43961,56024
43965,56012
43967,56018
43959,56003
43962,55986
43950,55993
43947,55986
43934,55983
43949,55970
43936,55953
43924,55931
43913,55944
43916,55939
43935,55940
43911,55918
43907,55912
43911,55902
43904,55914
43904,55905
43903,55917
43905,55907
43899,55912
43906,55920
43900,55913
43892,55894
43880,55900
43898,55880
43888,55888
43881,55874
43878,55876
43886,55886
43871,55867
43876,55858
43851,55861
43871,55861
43862,55858
43867,55864
43849,55846
43867,55860
43856,55854
43852,55867
43851,55865
43852,55854
43853,55849
43850,55846
43847,55835
43867,55848
43861,55840
43842,55845
43857,55851
43854,55841
43851,55846
43835,55837
43830,55837
43835,55832
43838,55857
43843,55839
43845,55844
43838,55850
43832,55841
43839,55834
43832,55828
43837,55831
43820,55829
43824,55836
43838,55844
43824,55840
43827,55834
43818,55849
43821,55844
43812,55826
43816,55847
43821,55842
43820,55834
43814,55831
43814,55837
43821,55828
43820,55837
43827,55847
43805,55843
43825,55831
43815,55851
43815,55840
43805,55832
43809,55830
43809,55841
43823,55839
43811,55856
43812,55855
43818,55848
43804,55845
43825,55857
43814,55849
43804,55861
43809,55873
43804,55849
43817,55846
43789,55866
43804,55856
43815,55859
43804,55852
43797,55860
43820,55871
43810,55860
43796,55879
43798,55861
43812,55875
43797,55879
43795,55851
43791,55842
43786,55846
43786,55833
43781,55809
43755,55798
43759,55778
43764,55772
43737,55752
43751,55747
43741,55746
43737,55742
43743,55740
43742,55729
43747,55730
43755,55734
43740,55735
43759,55747
43754,55734
43744,55730
43737,55727
43735,55721
43738,55727
43717,55709
43721,55692
43736,55686
43720,55677
43724,55686
43724,55694
43729,55674
43708,55667
43711,55674
43706,55675
43716,55697
43724,55677
43720,55682
43732,55693
43712,55676
43705,55679
43705,55706
43706,55672
43706,55680
43707,55671
43703,55671
43698,55647
43691,55668
43693,55646
43699,55648
43702,55657
43699,55677
43701,55655
43706,55667
43692,55655
43697,55666
43717,55657
43697,55662
43688,55659
43695,55654
43698,55678
43692,55695
43713,55662
43689,55639
43691,55646
43694,55679
43700,55657
43691,55668
43693,55675
43679,55652
43691,55668
43699,55667
43717,55661
43724,55674
43702,55659
43679,55671
43658,55668
43675,55676
43686,55676
43699,55671
43685,55675
43694,55667
43682,55680
43690,55679
43685,55673
43689,55682
43691,55702
43695,55684
43683,55700
43690,55687
43711,55716
43696,55703
43684,55700
43684,55703
43683,55701
43677,55700
43692,55702
43700,55699
43683,55711
43699,55702
43700,55711
43691,55708
43697,55701
43685,55711
43692,55731
43692,55703
43684,55724
43687,55729
43713,55725
43690,55738
43700,55721
43695,55732
43710,55729
43697,55733
43690,55738
43706,55748
43706,55727
43705,55753
43707,55745
43682,55753
43698,55747
43700,55741
43704,55739
43684,55735
43687,55718
43677,55697
43662,55667
43673,55687
43667,55667
43668,55654
43674,55672
43660,55652
43658,55650
43678,55677
43669,55674
43662,55660
43659,55664
43670,55684
43653,55673
43667,55666
43663,55688
43663,55687
43656,55667
43654,55677
43664,55668
43662,55663
43660,55673
43652,55672
43667,55665
43659,55656
43668,55673
43656,55666
43656,55683
43680,55669
43667,55672
43668,55690
43665,55687
43663,55677
43654,55673
43652,55677
43670,55682
43659,55680
43669,55681
43649,55675
43672,55684
43669,55692
43651,55680
43662,55674
43653,55693
43657,55679
43663,55684
43660,55683
43669,55698
43665,55684
43658,55700
43668,55694
43668,55705
43658,55709
43656,55692
43666,55704
43661,55710
43670,55712
43671,55721
43659,55710
43671,55709
43666,55713
43665,55717
43665,55707
43663,55730
43671,55716
43654,55731
43661,55723
43678,55731
43668,55729
43670,55737
43673,55729
43660,55736
43673,55745
43677,55733
43662,55737
43672,55755
43648,55752
43682,55744
43683,55759
43672,55752
43693,55766
43680,55767
43677,55755
43670,55759
43675,55777
43675,55778
43673,55777
43673,55776
43669,55776
43687,55773
43675,55780
43688,55797
43683,55788
43686,55803
43693,55790
43674,55797
43682,55807
43688,55800
43688,55799
43682,55800
43670,55807
43699,55809
43696,55814
43682,55809
43685,55826
43698,55824
43688,55823
43685,55831
43668,55816
43676,55834
43697,55830
43691,55833
43694,55842
43703,55834
43698,55842
43702,55859
43693,55861
43690,55869
43689,55862
43698,55870
43696,55864
43701,55862
43708,55864
43704,55875
43695,55862
43693,55884
43704,55892
43708,55881
43702,55887
43710,55893
43702,55868
43696,55856
43685,55851
43697,55828
43677,55824
43690,55811
43684,55812
43663,55815
43681,55813
43681,55822
43684,55826
43679,55850
43673,55849
43702,55854
43689,55848
43692,55858
43695,55843
43692,55859
43698,55850
43693,55841
43699,55859
43685,55847
43681,55850
43692,55853
43689,55846
43698,55844
43698,55850
43677,55860
43678,55857
43675,55875
43688,55858
43693,55877
43694,55872
43695,55878
43699,55873
43691,55896
43696,55889
43711,55887
43696,55893
43692,55886
43699,55881
43707,55896
43693,55886
43706,55893
43707,55886
43700,55894
43672,55885
43722,55910
43695,55890
43675,55916
43709,55921
43702,55904
43697,55896
43701,55897
43701,55895
43689,55929
43697,55927
43709,55924
43701,55930
43699,55924
43699,55944
43720,55933
43727,55943
43701,55922
43660,55944
43698,55946
43692,55942
43699,55937
43718,55951
43704,55943
43703,55952
43703,55967
43712,55977
43698,55966
43706,55957
43720,55960
43711,55965
43707,55986
43706,55972
43719,55968
43710,55967
43709,55972
43705,55977
43712,55989
43721,55983
43734,55976
43714,55983
43721,55982
43724,55991
43723,56001
43725,55998
43721,55992
43724,56011
43730,56002
43717,56005
43730,56002
43712,56010
43724,56003
43715,56011
43721,56020
43715,56021
43727,56010
43716,56022
43737,56020
43733,56029
43727,56040
43732,56033
43729,56035
43732,56047
43708,56046
43727,56033
43728,56024
43730,56039
43730,56063
43729,56050
43720,56059
43733,56049
43717,56061
43724,56068
43738,56072
43711,56060
43729,56058
43731,56070
43733,56060
43735,56071
43742,56086
43730,56074
43744,56077
43735,56098
43737,56091
43742,56092
43732,56079
43741,56084
43743,56100
43737,56104
43729,56072
43732,56076
43738,56073
43719,56050
43718,56041
43705,56031
43718,56022
43712,56031
43685,56027
43717,56029
43710,56038
43706,56033
43715,56058
43715,56058
43733,56045
43722,56066
43724,56076
43723,56075
43712,56075
43715,56065
43721,56059
43725,56053
43712,56061
43716,56059
43728,56055
43719,56067
43715,56051
43716,56047
43710,56060
43727,56069
43720,56089
43726,56086
43742,56071
43727,56081
43724,56083
43738,56076
43714,56073
43731,56086
43717,56093
43719,56078
43730,56093
43725,56082
43720,56071
43734,56096
43713,56096
43722,56091
43717,56083
43730,56093
43723,56099
43726,56095
43730,56100
43726,56098
43727,56089
43737,56096
43722,56110
43731,56108
43727,56115
43728,56112
43715,56120
43726,56129
43730,56118
43729,56127
43738,56127
43725,56127
43742,56136
43748,56147
43730,56137
43730,56142
43731,56147
43726,56139
43733,56146
43720,56141
43727,56135
43739,56146
43736,56142
43741,56142
43728,56149
43736,56152
43734,56146
43733,56158
43734,56177
43728,56150
43733,56161
43754,56164
43733,56176
43727,56166
43740,56161
43728,56186
43749,56170
43741,56169
43737,56172
43746,56185
43743,56189
43743,56187
43737,56180
43744,56196
43740,56192
43730,56184
43739,56204
43742,56203
43742,56196
43750,56194
43730,56199
43739,56199
43740,56202
43733,56204
43741,56206
43737,56211
43746,56193
43746,56225
43739,56207
43750,56215
43745,56234
43741,56230
43745,56223
43745,56234
43751,56221
43752,56222
43771,56232
43731,56237
43748,56239
43743,56225
43763,56241
43754,56241
43746,56248
43763,56248
43759,56240
43754,56261
43748,56249
43768,56239
43739,56234
43737,56214
43738,56223
43721,56185
43726,56189
43709,56179
43717,56178
43733,56183
43727,56169
43730,56170
43716,56184
43721,56170
43730,56197
43724,56183
43735,56200
43740,56198
43740,56191
43727,56195
43717,56195
43724,56194
43726,56194
43753,56202
43718,56195
43730,56190
43727,56178
43717,56183
43708,56203
43724,56203
43727,56191
43718,56154
43716,56192
43724,56192
43727,56179
43730,56204
43713,56220
43727,56195
43730,56203
43727,56202
43746,56208
43740,56208
43721,56191
43714,56193
43690,56201
43700,56202
43712,56196
43712,56209
43724,56199
43711,56204
43739,56195
43741,56211
43726,56221
43733,56208
43735,56231
43722,56229
43712,56222
43748,56230
43717,56226
43736,56224
43717,56216
43728,56239
43721,56212
43718,56223
43714,56236
43719,56231
43719,56237
43721,56229
43730,56234
43727,56241
43715,56244
43728,56238
43709,56245
43728,56244
43719,56255
43734,56240
43719,56244
43725,56251
43738,56255
43719,56262
43724,56262
43725,56263
43717,56245
43725,56259
43734,56260
43712,56264
43721,56259
43736,56266
43728,56258
43716,56270
43718,56261
43738,56257
43716,56262
43716,56282
43725,56269
43727,56248
43728,56280
43724,56266
43707,56261
43720,56277
43715,56280
43728,56277
43736,56281
43736,56290
43727,56287
43734,56288
43730,56298
43727,56301
43735,56286
43733,56308
43726,56307
43716,56297
43721,56311
43729,56304
43737,56307
43725,56304
43732,56310
43734,56320
43730,56331
43722,56309
43730,56309
43730,56311
43719,56325
43737,56325
43728,56329
43741,56329
43727,56340
43732,56326
43717,56331
43731,56334
43741,56331
43731,56327
43733,56349
43728,56346
43718,56352
43731,56337
43738,56350
43721,56340
43724,56320
43729,56319
43711,56301
43704,56285
43705,56264
43688,56253
43707,56257
43694,56244
43689,56263
43693,56244
43702,56241
43686,56265
43700,56268
43710,56269
43690,56268
43709,56284
43718,56300
43699,56284
43699,56285
43708,56272
43699,56272
43686,56279
43702,56256
43704,56253
43684,56266
43693,56259
43684,56247
43701,56272
43696,56269
43691,56266
43689,56262
43692,56261
43702,56269
43700,56278
43684,56275
43697,56273
43679,56272
43688,56296
43694,56285
43672,56279
43680,56268
43685,56262
43684,56269
43674,56274
43681,56273
43689,56265
43677,56265
43684,56265
43692,56251
43682,56275
43688,56267
43693,56281
43691,56278
43670,56281
43672,56279
43669,56281
43674,56278
43674,56295
43666,56283
43691,56280
43666,56281
43669,56292
43682,56279
43670,56294
43672,56290
43673,56298
43664,56285
43670,56304
43678,56270
43676,56282
43670,56316
43660,56290
43672,56284
43674,56295
43686,56296
43670,56305
43671,56311
43673,56298
43664,56305
43667,56310
43666,56317
43681,56294
43668,56313
43679,56318
43657,56321
43667,56325
43670,56326
43666,56312
43658,56297
43673,56323
43688,56310
43677,56331
43666,56335
43663,56310
43676,56329
43677,56346
43674,56337
43670,56329
43676,56332
43665,56327
43661,56332
43683,56347
43688,56337
43687,56347
43675,56336
43664,56336
43678,56349
43663,56355
43663,56352
43679,56344
43671,56355
43686,56361
43671,56357
43693,56375
43672,56361
43679,56386
43663,56360
43667,56363
43668,56365
43665,56368
43657,56349
43688,56357
43654,56342
43642,56329
43646,56310
43638,56290
43639,56279
43607,56289
43626,56283
43628,56262
43627,56251
43631,56263
43621,56260
43634,56295
43635,56301
43629,56273
43628,56260
43633,56277
43635,56268
43628,56278
43632,56269
43628,56273
43617,56259
43627,56256
43608,56257
43649,56264
43645,56252
43610,56255
43566,56250
43611,56259
43591,56256
43604,56251
43597,56257
43605,56254
43604,56247
43604,56260
43613,56268
43602,56265
43614,56271
43605,56272
43606,56259
43590,56258
43602,56254
43590,56251
43601,56266
43610,56239
43596,56251
43597,56258
43608,56258
43576,56238
43586,56242
43600,56248
43596,56237
43604,56270
43589,56242
43591,56260
43594,56264
43577,56265
43588,56265
43578,56262
43587,56251
43582,56264
43591,56261
43579,56270
43575,56272
43587,56276
43576,56258
43582,56267
43586,56265
43589,56258
43581,56272
43575,56265
43586,56255
43585,56279
43576,56259
43572,56276
43576,56278
43579,56257
43591,56275
43577,56283
43597,56267
43585,56279
43593,56262
43571,56272
43576,56273
43576,56297
43571,56283
43584,56293
43571,56272
43593,56294
43569,56300
43583,56286
43585,56301
43576,56272
43580,56294
43573,56306
43566,56295
43567,56293
43580,56313
43578,56295
43578,56293
43572,56310
43590,56309
43568,56314
43581,56310
43577,56303
43587,56304
43571,56322
43579,56319
43585,56316
43576,56310
43558,56314
43582,56321
43563,56307
43589,56313
43574,56326
43572,56327
43576,56321
43571,56338
43566,56332
43591,56337
43582,56327
43573,56342
43584,56336
43572,56334
43583,56350
43570,56346
43579,56343
43581,56348
43575,56362
43578,56348
43586,56354
43570,56350
43584,56348
43566,56353
43570,56341
43575,56347
43581,56339
43562,56305
43550,56292
43559,56263
43548,56261
43540,56258
43538,56242
43534,56241
43524,56220
43535,56242
43527,56241
43549,56248
43522,56259
43534,56268
43530,56249
43542,56227
43546,56244
43533,56257
43539,56249
43518,56265
43531,56242
43526,56242
43512,56233
43530,56236
43516,56217
43528,56230
43510,56229
43497,56214
43517,56214
43512,56212
43540,56204
43516,56220
43521,56220
43514,56223
43512,56227
43525,56229
43519,56216
43515,56220
43502,56214
43500,56233
43518,56235
43506,56213
43515,56214
43517,56196
43511,56216
43504,56220
43511,56209
43488,56202
43489,56204
43496,56214
43514,56225
43500,56212
43495,56192
43503,56214
43497,56211
43510,56217
43507,56214
43497,56224
43504,56215
43503,56211
43506,56234
43505,56217
43497,56222
43493,56220
43499,56196
43500,56228
43490,56225
43501,56216
43498,56231
43496,56223
43500,56226
43509,56220
43497,56224
43500,56238
43506,56231
43484,56233
43500,56220
43490,56232
43494,56226
43496,56218
43494,56227
43484,56230
43505,56243
43500,56239
43507,56239
43501,56237
43492,56231
43510,56252
43515,56230
43500,56241
43498,56245
43504,56240
43480,56246
43495,56252
43509,56248
43499,56244
43503,56244
43504,56267
43504,56244
43487,56250
43502,56248
43501,56264
43506,56255
43495,56265
43518,56260
43491,56254
43484,56256
43503,56263
43503,56242
43498,56266
43488,56270
43497,56274
43496,56269
43488,56274
43500,56285
43493,56284
43506,56280
43492,56286
43500,56281
43504,56294
43492,56285
43494,56301
43503,56307
43521,56317
43500,56296
43491,56269
43511,56281
43494,56295
43501,56321
43498,56282
43499,56268
43489,56263
43475,56243
43484,56223
43488,56222
43492,56209
43477,56188
43464,56203
43484,56256
43441,56175
43460,56198
43463,56188
43471,56195
43465,56204
43466,56208
43475,56208
43457,56212
43470,56217
43457,56197
43456,56205
43463,56197
43446,56188
43460,56205
43451,56173
43442,56185
43468,56176
43444,56172
43450,56187
43443,56163
43442,56192
43464,56178
43457,56196
43449,56182
43447,56193
43459,56183
43451,56192
43439,56193
43439,56189
43440,56182
43430,56178
43443,56181
43454,56170
43453,56175
43443,56173
43445,56179
43432,56158
43437,56175
43425,56169
43435,56168
43424,56166
43442,56172
43424,56174
43415,56175
43434,56175
43431,56180
43430,56165
43443,56181
43428,56178
43416,56166
43425,56168
43428,56192
43438,56177
43428,56179
43442,56173
43427,56171
43426,56184
43441,56175
43420,56193
43424,56194
43433,56175
43433,56194
43414,56177
43429,56170
43430,56173
43418,56181
43423,56194
43427,56195
43429,56179
43426,56186
43416,56168
43432,56178
43433,56194
43410,56186
43424,56184
43424,56187
43431,56191
43424,56187
43423,56188
43419,56199
43427,56200
43425,56209
43431,56196
43415,56194
43439,56203
43410,56208
43433,56199
43422,56200
43431,56202
43431,56217
43410,56197
43439,56212
43430,56202
43421,56204
43422,56216
43415,56218
43433,56226
43427,56213
43430,56216
43450,56224
43426,56229
43431,56217
43423,56220
43440,56231
43415,56233
43434,56243
43444,56229
43434,56243
43423,56240
43443,56233
43432,56247
43434,56255
43426,56244
43442,56245
43426,56243
43436,56243
43418,56237
43418,56231
43428,56218
43409,56227
43418,56187
43385,56164
43400,56154
43401,56151
43391,56146
43380,56130
43374,56130
43387,56122
43394,56130
43393,56122
43406,56138
43398,56146
43398,56130
43402,56146
43397,56138
43376,56147
43392,56128
43391,56129
43384,56136
43375,56107
43388,56120
43373,56109
43384,56110
43387,56097
43370,56100
43376,56090
43359,56085
43349,56101
43370,56100
43358,56096
43362,56108
43373,56106
43372,56112
43381,56100
43357,56094
43357,56103
43349,56086
43345,56092
43349,56100
43349,56101
43363,56093
43359,56085
43346,56080
43358,56078
43349,56094
43344,56082
43345,56094
43350,56086
43356,56091
43352,56091
43360,56084
43356,56078
43354,56076
43345,56083
43351,56074
43349,56094
43356,56088
43352,56088
43366,56079
43349,56090
43346,56085
43340,56094
43360,56091
43353,56081
43353,56079
43352,56075
43351,56093
43359,56098
43348,56100
43353,56102
43357,56103
43345,56095
43358,56090
43361,56106
43352,56102
43358,56103
43350,56089
43350,56095
43352,56099
43348,56101
43343,56108
43352,56105
43350,56096
43361,56094
43360,56119
43360,56105
43349,56108
43358,56104
43343,56115
43359,56110
43355,56115
43363,56115
43356,56102
43355,56119
43363,56133
43363,56108
43359,56126
43360,56120
43358,56125
43354,56130
43363,56134
43361,56125
43357,56124
43359,56129
43370,56128
43355,56128
43374,56127
43356,56149
43353,56139
43357,56154
43365,56170
43364,56171
43376,56141
43360,56166
43371,56112
43370,56127
43380,56147
43373,56151
43372,56157
43367,56159
43371,56171
43364,56154
43397,56174
43362,56162
43387,56169
43346,56175
43344,56162
43341,56141
43354,56124
43352,56131
43338,56094
43347,56075
43342,56088
43325,56060
43329,56076
43327,56043
43329,56043
43315,56041
43338,56060
43327,56046
43327,56055
43334,56051
43319,56066
43324,56079
43332,56062
43334,56046
43325,56052
43331,56055
43342,56030
43338,56039
43328,56031
43319,56024
43316,56034
43307,56027
43329,56020
43307,56018
43313,56026
43325,56026
43325,56032
43330,56015
43308,56024
43307,56013
43313,56022
43312,56017
43315,56016
43312,56013
43306,56023
43317,56017
43318,56020
43306,56003
43299,56005
43301,55995
43304,56000
43303,56012
43300,56022
43289,56012
43302,55986
43311,56006
43297,56006
43309,56012
43309,56006
43310,56005
43304,55997
43306,56007
43303,55994
43311,56006
43305,55994
43305,56012
43302,56002
43303,56003
43303,56004
43312,56017
43307,56014
43301,56006
43311,55994
43295,56030
43294,56022
43311,56028
43299,56015
43306,56007
43310,56014
43310,56019
43321,56005
43305,56029
43308,56006
43310,55991
43314,56003
43302,56010
43308,56000
43309,56012
43312,56014
43312,56012
43318,56012
43307,56014
43298,56020
43300,56005
43319,56011
43308,56027
43323,56011
43306,56037
43313,56016
43310,56028
43294,56029
43318,56035
43308,56040
43326,56022
43313,56027
43311,56038
43317,56021
43308,56033
43317,56037
43328,56044
43324,56038
43334,56041
43317,56040
43317,56059
43326,56028
43324,56052
43311,56066
43310,56058
43329,56049
43318,56040
43310,56035
43326,56038
43305,56011
43302,55996
43300,55981
43287,55963
43287,55968
43287,55927
43274,55920
43279,55917
43271,55909
43273,55914
43269,55922
43282,55918
43282,55929
43275,55906
43271,55911
43279,55923
43275,55910
43275,55895
43259,55911
43268,55894
43274,55889
43249,55891
43263,55887
43263,55864
43255,55864
43261,55874
43242,55855
43252,55862
43246,55845
43266,55864
43263,55861
43256,55846
43261,55854
43258,55861
43262,55861
43264,55862
43262,55866
43254,55864
43252,55844
43257,55838
43249,55862
43250,55838
43253,55834
43252,55836
43254,55826
43245,55837
43249,55836
43248,55847
43242,55837
43237,55836
43251,55826
43237,55828
43248,55825
43253,55834
43257,55832
43255,55836
43245,55821
43260,55826
43238,55825
43255,55825
43259,55833
43253,55820
43249,55830
43263,55838
43255,55829
43266,55840
43245,55830
43254,55827
43245,55837
43251,55845
43250,55825
43250,55852
43261,55839
43262,55832
43248,55857
43257,55824
43263,55836
43250,55840
43260,55833
43269,55844
43265,55852
43240,55846
43264,55844
43262,55843
43253,55857
43265,55847
43246,55845
43253,55866
43242,55855
43267,55852
43251,55852
43253,55840
43268,55855
43262,55870
43270,55866
43261,55862
43271,55859
43260,55864
43250,55863
43268,55869
43271,55844
43274,55875
43282,55870
43269,55862
43264,55870
43263,55885
43289,55875
43267,55890
43273,55888
43284,55873
43302,55886
43266,55892
43280,55887
43289,55894
43287,55903
43282,55923
43269,55921
43283,55895
43277,55876
43288,55919
43292,55913
43269,55916
43285,55917
43273,55934
43295,55921
43280,55937
43302,55922
43308,55931
43332,55930
43303,55938
43276,55935
43248,55918
43269,55896
43272,55917
43282,55882
43273,55852
43256,55869
43241,55854
43268,55820
43247,55820
43263,55846
43265,55816
43255,55822
43258,55828
43266,55822
43254,55819
43262,55826
43263,55824
43255,55831
43275,55836
43275,55828
43263,55838
43241,55830
43262,55819
43261,55822
43260,55795
43241,55816
43276,55807
43254,55794
43246,55806
43261,55795
43260,55802
43249,55811
43250,55829
43251,55805
43264,55808
43252,55829
43253,55816
43262,55828
43258,55819
43262,55807
43258,55828
43260,55824
43258,55834
43250,55817
43247,55820
43240,55803
43259,55812
43234,55821
43263,55805
43273,55803
43265,55810
43257,55810
43264,55811
43259,55816
43264,55807
43258,55819
43257,55824
43268,55835
43283,55828
43265,55831
43272,55845
43272,55839
43264,55849
43277,55836
43271,55845
43268,55853
43272,55850
43280,55838
43272,55840
43266,55850
43280,55861
43270,55843
43270,55858
43266,55854
43265,55861
43274,55867
43285,55857
43272,55868
43261,55873
43277,55862
43274,55876
43291,55872
43278,55889
43290,55886
43281,55888
43289,55873
43284,55884
43277,55877
43289,55878
43286,55883
43273,55905
43292,55896
43280,55891
43290,55888
43280,55904
43282,55918
43296,55903
43307,55906
43287,55909
43300,55909
43301,55920
43298,55914
43291,55926
43306,55911
43307,55930
43302,55926
43312,55932
43318,55921
43310,55940
43310,55928
43321,55932
43312,55945
43306,55948
43321,55957
43309,55952
43323,55963
43310,55968
43324,55957
43309,55967
43323,55961
43307,55940
43303,55928
43293,55911
43306,55910
43303,55895
43299,55902
43283,55881
43291,55881
43304,55877
43304,55880
43297,55884
43280,55889
43290,55875
43300,55888
43297,55890
43289,55892
43307,55901
43291,55907
43302,55889
43295,55905
43293,55902
43298,55912
43302,55883
43300,55871
43292,55886
43280,55890
43284,55891
43302,55879
43307,55896
43301,55896
43309,55897
43300,55921
43297,55912
43291,55898
43304,55906
43292,55903
43315,55907
43288,55908
43313,55914
43312,55903
43310,55900
43299,55915
43313,55901
43305,55910
43306,55892
43307,55910
43300,55902
43295,55928
43317,55922
43293,55915
43310,55912
43301,55916
43309,55915
43321,55926
43305,55922
43317,55918
43324,55942
43315,55932
43326,55942
43301,55955
43314,55928
43321,55934
43320,55944
43315,55946
43326,55944
43320,55941
43318,55942
43318,55943
43325,55950
43326,55953
43322,55940
43326,55958
43331,55945
43324,55954
43326,55961
43312,55971
43318,55969
43316,55951
43315,55972
43333,55965
43326,55962
43328,55968
43326,55973
43320,55967
43333,55987
43325,55977
43339,55974
43329,55989
43324,55992
43336,56004
43326,55985
43334,55999
43327,56009
43342,55998
43340,56043
43344,56000
43326,55994
43338,56004
43330,56014
43330,55990
43329,56024
43334,56030
43338,56011
43342,56025
43345,56034
43337,56026
43352,56018
43336,56035
43353,56044
43339,56037
43348,56039
43350,56046
43346,56058
43347,56080
43365,56050
43363,56030
43364,56049
43357,56061
43353,56073
43360,56070
43358,56068
43358,56076
43357,56072
43354,56079
43382,56068
43381,56084
43356,56064
43329,56056
43347,56039
43306,56035
43331,56020
43336,56011
43332,56000
43306,55991
43335,55983
43334,55991
43327,55974
43338,55958
43327,55997
43306,55993
43331,55996
43338,56002
43339,56003
43330,56012
43341,55988
43340,56005
43345,55996
43325,56003
43326,55990
43327,55994
43338,55982
43319,55969
43325,55978
43324,55972
43317,55963
43312,55958
43319,55962
43321,55966
43317,55966
43324,55979
43328,55993
43307,55993
43315,55978
43347,55982
43319,55991
43304,55972
43327,55973
43308,55981
43316,55985
43317,55960
43319,55958
43326,55978
43317,55973
43310,55971
43316,55972
43318,55972
43321,55966
43327,55963
43297,55981
43313,55985
43303,55992
43313,55970
43315,55987
43308,55979
43322,55980
43310,55978
43313,55989
43316,55989
43307,55981
43310,55980
43310,55981
43303,55995
43320,55985
43325,55987
43309,56002
43313,55990
43303,55987
43316,55980
43309,55978
43303,55988
43330,55997
43302,55995
43312,55983
43318,56007
43313,56000
43306,55999
43310,56005
43318,55992
43301,55987
43310,56011
43307,55997
43302,56014
43313,56014
43309,55997
43305,55998
43307,56018
43309,56011
43321,56008
43307,55997
43318,56020
43328,56028
43313,56005
43324,56021
43309,56023
43314,56021
43311,56029
43310,56020
43326,56016
43310,56030
43315,56040
43300,56034
43312,56043
43305,56037
43330,56021
43315,56046
43323,56042
43329,56034
43312,56041
43320,56050
43320,56044
43324,56053
43309,56047
43308,56049
43309,56048
43320,56049
43310,56048
43327,56053
43313,56063
43324,56053
43304,56049
43318,56040
43311,56037
43308,56030
43290,55999
43289,55999
43297,55990
43294,55969
43287,55966
43279,55963
43277,55954
43284,55956
43274,55950
43285,55963
43277,55954
43272,55960
43278,55960
43260,55961
43277,55971
43275,55948
43278,55949
43257,55943
43268,55946
43269,55933
43261,55935
43264,55923
43256,55926
43258,55914
43256,55912
43269,55926
43256,55906
43272,55923
43259,55917
43260,55917
43252,55919
43269,55919
43259,55917
43257,55919
43256,55911
43248,55915
43258,55907
43256,55913
43255,55908
43252,55878
43258,55896
43245,55890
43240,55882
43246,55893
43252,55891
43238,55877
43215,55870
43238,55886
43232,55875
43242,55872
43236,55887
43241,55874
43247,55873
43233,55877
43236,55880
43231,55875
43240,55868
43251,55878
43234,55883
43231,55887
43232,55876
43230,55874
43231,55871
43235,55890
43237,55879
43236,55873
43230,55886
43241,55888
43232,55857
43224,55892
43225,55874
43216,55871
43227,55864
43224,55884
43223,55870
43217,55866
43215,55874
43223,55873
43214,55876
43225,55890
43231,55902
43228,55878
43220,55868
43216,55870
43219,55869
43222,55867
43221,55871
43228,55877
43219,55891
43220,55887
43227,55886
43212,55840
43234,55879
43221,55874
43209,55888
43212,55857
43203,55837
43194,55834
43194,55818
43178,55794
43180,55793
43201,55782
43173,55757
43165,55766
43162,55758
43161,55744
43170,55768
43162,55773
43153,55722
43166,55721
43156,55733
43162,55703
43146,55703
43155,55704
43145,55686
43147,55697
43133,55673
43143,55667
43158,55666
43148,55644
43135,55670
43089,55652
43094,55658
43120,55645
43133,55654
43120,55626
43121,55630
43118,55646
43120,55628
43106,55639
43130,55619
43121,55626
43116,55617
43102,55618
43114,55603
43113,55600
43088,55609
43104,55605
43109,55584
43091,55580
43084,55588
43083,55596
43085,55580
43092,55586
43096,55576
43085,55566
43088,55581
43088,55575
43090,55561
43093,55567
43089,55561
43089,55557
43087,55566
43069,55561
43086,55560
43087,55581
43099,55548
43080,55557
43070,55557
43108,55551
43075,55562
43085,55566
43087,55564
43072,55562
43085,55555
43090,55561
43073,55561
43089,55555
43092,55574
43081,55557
43081,55550
43088,55562
43073,55546
43069,55549
43085,55547
43073,55561
43087,55555
43080,55550
43077,55563
43073,55568
43093,55555
43088,55561
43073,55573
43096,55583
43079,55552
43081,55561
43078,55568
43080,55575
43079,55573
43075,55561
43087,55567
43075,55580
43083,55558
43091,55571
43092,55583
43074,55580
43079,55598
43089,55576
43084,55595
43100,55581
43076,55575
43073,55591
43089,55588
43085,55583
43081,55597
43085,55598
43082,55590
43088,55599
43088,55594
43079,55595
43093,55590
43088,55607
43084,55597
43086,55608
43098,55590
43082,55603
43097,55604
43096,55608
43087,55612
43082,55607
43097,55603
43098,55618
43094,55619
43097,55629
43093,55615
43100,55626
43096,55619
43097,55620
43085,55621
43083,55606
43085,55593
43072,55576
43082,55547
43061,55525
43054,55534
43053,55517
43051,55518
43058,55514
43052,55526
43053,55517
43076,55518
43061,55529
43034,55522
43045,55524
43064,55518
43046,55527
43056,55540
43045,55502
43045,55491
43045,55488
43046,55506
43041,55486
43039,55496
43048,55493
43021,55484
43055,55478
43058,55493
43026,55493
43053,55507
43055,55507
43044,55497
43047,55501
43049,55492
43049,55490
43046,55503
43039,55497
43034,55503
43038,55492
43037,55482
43043,55485
43042,55481
43039,55477
43033,55488
43040,55501
43029,55483
43047,55482
43038,55490
43038,55489
43053,55490
43038,55487
43039,55485
43039,55498
43053,55516
43047,55518
43054,55503
43036,55488
43047,55496
43056,55512
43047,55502
43048,55523
43048,55517
43044,55530
43053,55529
43037,55520
43056,55518
43061,55526
43043,55521
43040,55527
43038,55516
43056,55525
43057,55537
43062,55545
43048,55552
43057,55540
43055,55541
43049,55537
43044,55538
43055,55553
43067,55553
43056,55553
43057,55552
43065,55567
43054,55552
43056,55556
43055,55557
43062,55563
43059,55560
43061,55568
43068,55563
43075,55589
43066,55584
43072,55583
43072,55579
43067,55585
43062,55592
43069,55577
43066,55591
43075,55609
43069,55597
43073,55599
43062,55610
43069,55604
43074,55596
43070,55605
43061,55612
43070,55618
43064,55639
43098,55621
43074,55635
43072,55627
43077,55631
43084,55616
43083,55640
43082,55622
43084,55645
43078,55645
43087,55637
43075,55645
43083,55652
43095,55656
43083,55664
43072,55651
43085,55677
43088,55666
43090,55679
43097,55713
43094,55685
43098,55643
43109,55646
43098,55670
43089,55685
43094,55668
43079,55679
43083,55656
43069,55638
43055,55617
43092,55624
43066,55622
43067,55600
43035,55601
43072,55599
43031,55589
43050,55606
43082,55604
43069,55625
43066,55617
43065,55618
43068,55615
43064,55627
43075,55622
43077,55605
43062,55633
43085,55613
43068,55616
43064,55625
43066,55605
43059,55586
43067,55601
43067,55613
43066,55613
43075,55616
43073,55618
43056,55617
43079,55631
43066,55628
43080,55619
43070,55630
43083,55627
43081,55626
43079,55622
43071,55643
43081,55637
43072,55638
43070,55621
43067,55624
43073,55631
43081,55629
43079,55629
43076,55652
43076,55621
43073,55633
43075,55637
43088,55653
43089,55639
43077,55653
43084,55652
43096,55652
43090,55642
43089,55647
43094,55651
43091,55662
43082,55652
43074,55653
43079,55658
43090,55677
43097,55681
43102,55671
43080,55673
43100,55664
43089,55683
43089,55666
43088,55679
43110,55686
43102,55684
43101,55689
43081,55677
43106,55694
43096,55703
43090,55677
43091,55688
43107,55683
43079,55697
43098,55713
43102,55705
43110,55711
43092,55695
43116,55722
43112,55722
43101,55715
43125,55709
43114,55725
43123,55728
43114,55736
43123,55731
43112,55737
43121,55720
43116,55740
43110,55752
43114,55743
43130,55754
43118,55742
43113,55732
43124,55757
43107,55768
43115,55766
43130,55753
43117,55768
43129,55766
43128,55778
43123,55774
43126,55779
43123,55776
43136,55774
43127,55762
43129,55770
43120,55789
43137,55786
43141,55784
43125,55796
43132,55794
43135,55800
43130,55789
43139,55806
43145,55813
43134,55813
43143,55807
43131,55801
43145,55825
43149,55802
43141,55814
43147,55820
43129,55790
43116,55791
43121,55779
43120,55751
43131,55745
43112,55743
43117,55741
43106,55718
43110,55744
43105,55732
43126,55723
43110,55742
43104,55764
43109,55759
43114,55741
43123,55740
43120,55740
43110,55737
43131,55739
43116,55733
43121,55736
43110,55727
43125,55724
43113,55711
43113,55706
43103,55717
43100,55702
43117,55713
43104,55709
43107,55711
43112,55722
43102,55727
43117,55726
43100,55720
43120,55728
43118,55725
43104,55722
43108,55722
43106,55726
43116,55742
43114,55724
43104,55710
43109,55718
43118,55715
43108,55725
43103,55705
43109,55723
43110,55719
43104,55722
43127,55720
43119,55716
43105,55737
43107,55716
43110,55718
43120,55715
43114,55725
43122,55736
43119,55716
43119,55736
43111,55734
43119,55732
43119,55730
43128,55757
43129,55745
43125,55735
43120,55739
43121,55744
43120,55750
43121,55738
43112,55759
43132,55732
43137,55753
43135,55748
43122,55745
43120,55764
43126,55761
43121,55769
43137,55747
43127,55757
43123,55771
43132,55748
43127,55757
43144,55759
43132,55777
43128,55772
43147,55778
43139,55770
43116,55766
43137,55785
43142,55782
43136,55785
43140,55777
43148,55786
43138,55800
43132,55786
43137,55813
43131,55784
43143,55800
43144,55790
43148,55790
43152,55814
43154,55802
43140,55801
43141,55806
43148,55823
43128,55816
43149,55814
43147,55810
43143,55822
43152,55838
43127,55757
43144,55819
43152,55838
43162,55842
43136,55839
43160,55805
43159,55820
43163,55844
43151,55830
43156,55829
43155,55852
43159,55849
43158,55839
43176,55843
43157,55838
43180,55856
43138,55839
43132,55848
43131,55784
43172,55874
43168,55872
43163,55869
43165,55871
43159,55869
43172,55863
43160,55826
43144,55841
43148,55804
43142,55795
43159,55787
43130,55784
43132,55772
43144,55782
43124,55775
43146,55768
43134,55771
43140,55768
43151,55779
43143,55771
43144,55782
43149,55772
43129,55778
43143,55778
43145,55765
43151,55783
43135,55772
43138,55769
43120,55774
43124,55769
43133,55747
43140,55755
43120,55753
43133,55762
43129,55748
43136,55765
43126,55776
43132,55771
43141,55766
43130,55766
43135,55751
43132,55758
43132,55756
43136,55767
43139,55775
43119,55764
43128,55761
43134,55757
43142,55754
43133,55759
43134,55770
43144,55751
43122,55753
43136,55755
43132,55744
43123,55739
43127,55765
43117,55777
43114,55760
43140,55763
43126,55745
43134,55759
43131,55775
43136,55764
43128,55767
43128,55777
43133,55770
43130,55773
43137,55777
43140,55780
43141,55784
43136,55777
43154,55782
43147,55782
43145,55782
43152,55770
43136,55775
43139,55783
43144,55798
43136,55790
43142,55791
43137,55785
43133,55786
43128,55798
43140,55798
43133,55801
43125,55792
43133,55790
43132,55790
43139,55806
43147,55811
43139,55813
43134,55790
43142,55798
43140,55803
43141,55826
43153,55799
43146,55819
43140,55798
43160,55815
43144,55818
43141,55827
43148,55816
43158,55821
43143,55838
43147,55825
43138,55843
43144,55836
43151,55813
43148,55840
43144,55831
43156,55842
43156,55829
43143,55854
43141,55840
43153,55830
43151,55840
43152,55848
43158,55849
43164,55838
43145,55859
43158,55858
43139,55866
43151,55871
43165,55856
43167,55862
43166,55865
43149,55861
43141,55837
43137,55830
43140,55815
43125,55796
43127,55774
43117,55782
43124,55768
43113,55756
43117,55769
43106,55767
43111,55758
43119,55764
43133,55752
43114,55768
43127,55765
43112,55753
43100,55759
43104,55757
43111,55757
43100,55747
43112,55743
43107,55730
43106,55732
43091,55730
43096,55715
43114,55727
43085,55713
43108,55720
43102,55720
43084,55722
43096,55727
43093,55709
43100,55719
43104,55715
43106,55724
43095,55724
43104,55730
43105,55721
43101,55720
43112,55729
43093,55719
43099,55715
43099,55703
43108,55720
43101,55706
43088,55711
43094,55709
43084,55712
43096,55707
43091,55700
43092,55712
43094,55709
43097,55705
43093,55709
43094,55716
43093,55715
43098,55723
43105,55717
43104,55714
43102,55715
43105,55722
43099,55713
43090,55719
43089,55732
43102,55727
43088,55729
43100,55728
43095,55716
43096,55711
43091,55728
43112,55729
43094,55715
43107,55733
43111,55724
43102,55733
43081,55724
43097,55730
43094,55737
43084,55732
43095,55733
43101,55741
43105,55742
43101,55740
43102,55734
43097,55743
43105,55740
43095,55744
43098,55729
43107,55713
43095,55733
43099,55750
43108,55747
43103,55750
43107,55756
43107,55771
43106,55761
43082,55751
43094,55749
43124,55779
43107,55771
43119,55765
43100,55779
43116,55783
43104,55781
43105,55778
43113,55752
43103,55736
43102,55769
43103,55783
43122,55795
43108,55789
43109,55781
43104,55782
43110,55791
43148,55805
43138,55807
43134,55794
43115,55804
43086,55795
43088,55801
43105,55798
43118,55805
43122,55812
43121,55806
43124,55818
43109,55794
43120,55825
43113,55813
43121,55805
43123,55816
43114,55821
43120,55830
43123,55834
43115,55822
43114,55810
43109,55804
43108,55766
43109,55764
43102,55765
43082,55741
43098,55727
43078,55708
43085,55725
43090,55711
43082,55723
43087,55718
43097,55709
43101,55723
43092,55727
43090,55716
43093,55737
43090,55727
43093,55724
43095,55741
43091,55721
43074,55718
43088,55721
43070,55709
43072,55701
43090,55703
43085,55707
43082,55703
43069,55703
43080,55719
43094,55712
43098,55706
43079,55726
43101,55731
43096,55741
43070,55729
43101,55726
43077,55735
43105,55739
43077,55719
43091,55720
43090,55722
43088,55719
43089,55706
43098,55715
43097,55724
43089,55716
43091,55721
43078,55719
43079,55713
43076,55721
43081,55707
43080,55714
43094,55728
43081,55722
43082,55726
43089,55717
43096,55731
43079,55735
43084,55719
43092,55743
43096,55748
43093,55744
43100,55729
43093,55743
43103,55742
43100,55733
43086,55755
43098,55741
43092,55722
43088,55734
43091,55730
43104,55749
43087,55747
43097,55732
43095,55750
43094,55742
43101,55758
43102,55750
43095,55773
43100,55769
43101,55764
43104,55777
43096,55748
43097,55765
43106,55788
43111,55788
43107,55771
43102,55776
43114,55775
43097,55789
43103,55780
43101,55790
43095,55769
43086,55779
43088,55800
43101,55793
43100,55802
43114,55792
43097,55788
43100,55796
43107,55798
43104,55800
43116,55802
43130,55806
43107,55811
43114,55799
43102,55813
43112,55826
43096,55810
43126,55820
43137,55817
43132,55806
43117,55821
43116,55814
43121,55822
43109,55821
43123,55833
43136,55840
43129,55818
43122,55830
43131,55834
43125,55843
43117,55848
43116,55839
43124,55856
43114,55850
43112,55847
43126,55859
43127,55853
43118,55841
43121,55832
43113,55821
43120,55802
43108,55776
43100,55784
43099,55773
43092,55761
43094,55759
43090,55754
43092,55753
43093,55754
43107,55756
43099,55767
43098,55766
43110,55772
43098,55787
43104,55755
43096,55774
43097,55770
43102,55765
43096,55769
43098,55768
43087,55761
43104,55745
43096,55761
43085,55731
43086,55742
43114,55757
43097,55747
43102,55757
43092,55759
43105,55766
43100,55761
43117,55766
43105,55756
43097,55767
43094,55771
43101,55772
43104,55759
43100,55763
43098,55766
43113,55744
43107,55771
43083,55765
43111,55759
43099,55760
43097,55748
43105,55763
43085,55767
43102,55769
43103,55751
43091,55761
43090,55775
43110,55773
43106,55772
43107,55761
43097,55773
43096,55764
43092,55762
43112,55771
43099,55782
43100,55787
43099,55781
43110,55787
43116,55774
43112,55783
43110,55791
43104,55777
43115,55818
43121,55792
43107,55779
43103,55799
43124,55789
43109,55796
43117,55790
43100,55800
43109,55796
43110,55798
43125,55806
43104,55801
43116,55789
43119,55813
43130,55805
43103,55819
43113,55803
43129,55834
43127,55839
43126,55821
43121,55784
43135,55793
43119,55821
43109,55824
43118,55831
43124,55832
43119,55826
43125,55826
43133,55833
43133,55821
43153,55838
43122,55844
43106,55831
43121,55792
43149,55839
43119,55847
43114,55864
43128,55839
43134,55857
43136,55863
43129,55858
43144,55860
43109,55846
43136,55862
43136,55862
43138,55864
43137,55876
43141,55873
43132,55865
43151,55873
43124,55878
43138,55883
43148,55875
43120,55859
43146,55878
43146,55890
43146,55899
43137,55887
43148,55885
43148,55902
43149,55906
43147,55900
43145,55908
43150,55910
43149,55893
43136,55883
43134,55882
43129,55854
43124,55838
43119,55832
43118,55808
43109,55792
43112,55790
43113,55785
43113,55777
43111,55777
43104,55793
43100,55791
43118,55787
43118,55801
43102,55787
43119,55806
43113,55790
43105,55799
43124,55789
43119,55782
43117,55775
43117,55783
43103,55760
43107,55757
43111,55760
43091,55755
43096,55765
43109,55763
43098,55772
43116,55754
43117,55768
43121,55750
43103,55762
43106,55751
43106,55766
43122,55760
43102,55772
43101,55772
43100,55758
43097,55769
43103,55761
43087,55747
43110,55740
43103,55754
43106,55744
43112,55749
43102,55738
43089,55741
43098,55745
43109,55752
43106,55739
43104,55748
43124,55754
43116,55763
43116,55759
43109,55763
43111,55749
43100,55746
43104,55767
43096,55751
43101,55766
43107,55775
43113,55759
43111,55764
43108,55757
43107,55768
43120,55762
43111,55767
43125,55780
43105,55771
43127,55770
43126,55777
43108,55773
43127,55770
43111,55756
43112,55766
43104,55752
43123,55770
43115,55790
43131,55774
43114,55758
43126,55780
43108,55774
43117,55779
43120,55776
43125,55796
43136,55788
43119,55782
43124,55792
43107,55779
43133,55791
43109,55770
43130,55796
43136,55794
43131,55790
43113,55803
43131,55805
43139,55801
43139,55800
43135,55797
43127,55794
43127,55797
43126,55819
43129,55822
43127,55825
43135,55824
43127,55797
43145,55820
43127,55836
43146,55823
43131,55828
43129,55829
43131,55836
43138,55840
43153,55833
43143,55834
43151,55848
43139,55833
43146,55831
43140,55853
43128,55841
43138,55846
43135,55846
43147,55850
43148,55859
43144,55859
43149,55865
43140,55865
43155,55875
43140,55878
43137,55867
43151,55857
43130,55844
43133,55817
43113,55806
43125,55775
43114,55765
43113,55768
43117,55731
43118,55742
43104,55747
43102,55739
43099,55730
43106,55748
43109,55754
43115,55761
43113,55764
43112,55757
43117,55760
43119,55759
43114,55742
43118,55758
43116,55760
43108,55747
43122,55738
43106,55724
43117,55722
43109,55732
43105,55727
43106,55720
43101,55724
43094,55720
43105,55725
43113,55750
43092,55740
43099,55732
43120,55725
43097,55733
43106,55715
43103,55739
43096,55729
43108,55731
43116,55728
43103,55709
43104,55718
43106,55717
43099,55734
43117,55719
43107,55712
43106,55755
43104,55722
43112,55734
43107,55721
43108,55718
43108,55713
43103,55722
43126,55736
43099,55722
43102,55737
43116,55726
43106,55724
43109,55743
43104,55725
43097,55732
43105,55725
43106,55742
43108,55749
43112,55760
43108,55738
43109,55712
43108,55743
43116,55731
43122,55736
43127,55741
43126,55750
43114,55760
43115,55757
43135,55759
43115,55768
43149,55775
43113,55755
43086,55759
43101,55757
43111,55755
43130,55764
43115,55784
43128,55756
43125,55777
43130,55770
43121,55766
43122,55784
43118,55785
43124,55761
43138,55788
43122,55795
43142,55772
43128,55784
43133,55803
43123,55786
43147,55786
43138,55782
43137,55797
43127,55800
43138,55789
43136,55802
43125,55805
43126,55811
43146,55808
43126,55817
43129,55812
43144,55827
43130,55823
43130,55824
43149,55830
43140,55818
43138,55833
43149,55823
43132,55832
43131,55838
43149,55833
43144,55832
43141,55832
43146,55855
43145,55823
43163,55838
43142,55824
43151,55832
43122,55793
43121,55788
43119,55765
43126,55756
43120,55743
43111,55736
43115,55727
43123,55731
43121,55733
43100,55728
43115,55745
43110,55732
43123,55733
43110,55752
43097,55749
43119,55739
43101,55753
43108,55730
43116,55737
43104,55722
43116,55718
43095,55712
43102,55721
43109,55706
43094,55710
43101,55711
43102,55701
43095,55726
43099,55714
43113,55720
43116,55713
43101,55721
43110,55728
43101,55720
43103,55711
43107,55722
43103,55727
43114,55712
43101,55724
43109,55706
43082,55705
43110,55708
43091,55703
43095,55714
43097,55714
43108,55705
43104,55700
43102,55712
43099,55698
43115,55693
43100,55692
43099,55723
43110,55704
43096,55710
43108,55721
43108,55708
43104,55719
43108,55725
43112,55729
43092,55741
43124,55732
43104,55720
43114,55732
43115,55716
43119,55725
43102,55722
43104,55726
43110,55725
43114,55738
43109,55733
43103,55727
43114,55728
43109,55725
43123,55746
43110,55739
43119,55742
43120,55729
43118,55739
43120,55758
43119,55764
43118,55737
43104,55752
43122,55761
43129,55757
43115,55766
43110,55768
43123,55763
43113,55760
43116,55758
43113,55766
43121,55789
43122,55778
43132,55773
43140,55786
43127,55774
43117,55781
43130,55767
43138,55776
43131,55760
43115,55797
43118,55796
43140,55804
43124,55794
43137,55793
43119,55815
43128,55795
43130,55825
43140,55808
43128,55814
43134,55817
43143,55807
43147,55808
43145,55816
43156,55828
43158,55837
43138,55818
43130,55827
43147,55833
43136,55836
43146,55829
43151,55837
43149,55845
43143,55840
43148,55837
43156,55858
43153,55851
43134,55853
43155,55853
43158,55847
43143,55849
43152,55862
43159,55852
43177,55875
43155,55864
43139,55847
43145,55821
43142,55823
43134,55813
43114,55794
43111,55792
43118,55767
43124,55763
43109,55761
43113,55755
43115,55759
43105,55762
43120,55749
43124,55748
43113,55766
43120,55750
43132,55763
43124,55759
43124,55767
43117,55764
43109,55770
43121,55759
43114,55772
43106,55746
43115,55750
43121,55741
43111,55750
43111,55733
43106,55736
43114,55721
43108,55753
43104,55735
43110,55740
43128,55777
43116,55743
43120,55745
43115,55745
43132,55756
43101,55769
43116,55756
43110,55761
43115,55744
43117,55742
43135,55743
43106,55734
43110,55758
43119,55760
43119,55743
43095,55737
43114,55746
43130,55757
43118,55781
43117,55737
43107,55710
43106,55729
43126,55764
43128,55753
43133,55769
43125,55748
43131,55780
43121,55755
43152,55771
43118,55778
43119,55781
43109,55777
43112,55796
43118,55765
43139,55756
43125,55769
43126,55783
43126,55764
43132,55792
43125,55777
43128,55788
43124,55787
43125,55781
43133,55789
43132,55796
43125,55794
43137,55798
43132,55793
43129,55782
43126,55802
43129,55792
43139,55792
43130,55806
43148,55811
43145,55819
43140,55813
43128,55812
43130,55816
43129,55810
43136,55813
43142,55837
43148,55810
43143,55839
43139,55838
43128,55823
43136,55825
43145,55825
43131,55827
43130,55833
43131,55847
43139,55842
43142,55836
43134,55844
43138,55853
43158,55860
43148,55840
43148,55856
43155,55873
43171,55873
43156,55879
43159,55866
43157,55867
43155,55878
43150,55884
43160,55884
43154,55876
43154,55888
43153,55869
43147,55854
43143,55848
43142,55828
43140,55817
43128,55816
43124,55805
43124,55793
43121,55771
43125,55766
43120,55797
43127,55782
43136,55764
43119,55788
43120,55785
43117,55778
43125,55780
43124,55792
43121,55779
43136,55793
43124,55769
43125,55780
43118,55775
43125,55757
43117,55773
43109,55775
43108,55751
43117,55772
43111,55748
43126,55760
43120,55753
43115,55767
43117,55764
43122,55763
43125,55758
43111,55770
43129,55760
43113,55773
43133,55757
43127,55762
43136,55757
43121,55766
43110,55761
43115,55761
43112,55761
43127,55739
43103,55758
43111,55740
43118,55765
43114,55747
43120,55749
43126,55768
43113,55772
43123,55749
43113,55754
43113,55777
43112,55755
43114,55758
43109,55764
43122,55765
43106,55767
43105,55772
43120,55769
43109,55778
43132,55772
43110,55773
43129,55762
43113,55760
43112,55780
43128,55793
43119,55774
43109,55773
43127,55783
43114,55769
43123,55786
43130,55789
43120,55785
43120,55780
43134,55789
43127,55779
43131,55801
43112,55785
43133,55784
43116,55795
43112,55787
43123,55818
43138,55800
43121,55797
43126,55819
43134,55808
43140,55821
43123,55813
43145,55795
43125,55814
43132,55804
43134,55807
43129,55823
43132,55819
43143,55821
43132,55832
43134,55830
43137,55829
43130,55822
43145,55835
43151,55842
43147,55828
43142,55832
43139,55837
43141,55837
43149,55843
43137,55850
43151,55856
43140,55857
43139,55866
43143,55864
43147,55858
43148,55868
43153,55866
43147,55879
43155,55869
43154,55862
43150,55886
43144,55870
43150,55884
43154,55873
43150,55873
43144,55879
43166,55881
43158,55888
43143,55882
43154,55890
43161,55873
43144,55874
43139,55861
43127,55842
43124,55818
43120,55828
43127,55813
43119,55799
43112,55789
43106,55787
43113,55778
43122,55770
43115,55769
43124,55786
43128,55776
43124,55782
43114,55789
43127,55774
43126,55786
43127,55783
43110,55777
43105,55782
43115,55776
43113,55781
43096,55754
43120,55764
43119,55742
43107,55753
43104,55753
43112,55768
43107,55747
43112,55750
43100,55743
43110,55742
43108,55749
43114,55764
43121,55754
43136,55760
43101,55755
43112,55762
43121,55755
43105,55760
43119,55787
43111,55775
43120,55751
43106,55712
43102,55761
43103,55737
43094,55743
43110,55745
43110,55740
43110,55754
43108,55754
43108,55738
43124,55760
43129,55751
43128,55749
43096,55767
43083,55757
43101,55766
43097,55756
43106,55753
43111,55777
43121,55769
43107,55766
43117,55774
43111,55770
43109,55784
43113,55775
43109,55783
43115,55791
43112,55779
43118,55793
43113,55786
43127,55771
43116,55784
43124,55793
43112,55769
43116,55783
43124,55779
43114,55797
43115,55776
43128,55786
43117,55800
43124,55796
43127,55816
43115,55806
43126,55796
43127,55806
43128,55801
43117,55818
43118,55795
43136,55806
43123,55808
43132,55805
43123,55808
43130,55818
43130,55822
43120,55808
43140,55847
43129,55837
43130,55832
43143,55832
43135,55838
43131,55841
43145,55838
43137,55848
43131,55837
43144,55839
43131,55849
43130,55854
43121,55840
43144,55851
43127,55865
43129,55855
43152,55848
43155,55858
43138,55867
43131,55858
43146,55865
43143,55863
43139,55868
43140,55874
43150,55873
43148,55890
43152,55893
43138,55881
43138,55871
43128,55849
43121,55847
43133,55806
43121,55801
43118,55799
43119,55791
43111,55759
43104,55784
43113,55771
43111,55781
43098,55786
43118,55796
43134,55780
43131,55789
43126,55785
43116,55799
43122,55808
43129,55800
43110,55802
43122,55797
43131,55802
43134,55792
43114,55790
43113,55782
43118,55779
43113,55773
43114,55777
43127,55768
43117,55780
43124,55789
43117,55798
43117,55804
43126,55785
43117,55794
43117,55800
43114,55789
43124,55780
43129,55775
43117,55786
43125,55777
43125,55783
43109,55777
43109,55772
43115,55772
43108,55775
43104,55791
43125,55807
43107,55791
43121,55789
43114,55782
43116,55768
43109,55795
43129,55772
43117,55798
43121,55787
43121,55790
43136,55795
43115,55782
43133,55816
43117,55787
43116,55795
43124,55802
43137,55810
43122,55814
43116,55821
43126,55800
43134,55807
43122,55813
43132,55814
43127,55805
43128,55836
43128,55821
43121,55830
43143,55808
43123,55824
43124,55827
43133,55822
43117,55817
43130,55838
43150,55826
43137,55829
43138,55854
43141,55833
43137,55842
43156,55846
43119,55831
43153,55854
43125,55843
43152,55849
43151,55847
43157,55842
43142,55842
43141,55848
43153,55862
43150,55862
43146,55863
43135,55869
43148,55858
43146,55871
43135,55861
43148,55871
43142,55880
43149,55869
43155,55875
43162,55883
43162,55864
43164,55876
43162,55882
43146,55904
43148,55893
43140,55867
43142,55840
43137,55843
43137,55828
43108,55817
43109,55802
43119,55801
43118,55794
43118,55783
43121,55790
43106,55790
43110,55778
43128,55776
43120,55783
43139,55791
43115,55790
43118,55784
43125,55785
43119,55786
43125,55777
43128,55763
43144,55766
43112,55767
43118,55762
43108,55754
43121,55749
43101,55752
43116,55739
43120,55750
43109,55743
43091,55741
43108,55749
43108,55742
43121,55728
43111,55726
43114,55747
43109,55742
43112,55744
43102,55742
43117,55737
43108,55748
43120,55731
43123,55729
43119,55740
43133,55748
43099,55746
43112,55731
43111,55726
43120,55733
43125,55785
43110,55751
43102,55758
43117,55729
43111,55723
43108,55727
43112,55729
43116,55744
43117,55753
43116,55740
43112,55745
43125,55755
43141,55752
43148,55736
43108,55739
43115,55746
43088,55751
43111,55726
43107,55743
43115,55750
43111,55755
43113,55754
43125,55738
43114,55747
43116,55758
43135,55759
43121,55758
43118,55757
43119,55766
43121,55757
43121,55758
43127,55772
43135,55771
43133,55771
43126,55766
43122,55777
43124,55774
43147,55760
43122,55780
43137,55779
43116,55798
43134,55781
43146,55785
43136,55790
43135,55787
43134,55792
43149,55786
43140,55800
43132,55775
43136,55797
43138,55805
43146,55796
43133,55806
43135,55812
43140,55799
43151,55807
43142,55817
43137,55835
43135,55822
43141,55809
43136,55826
43149,55814
43135,55817
43153,55828
43133,55842
43153,55835
43160,55839
43159,55832
43145,55820
43139,55839
43163,55842
43158,55856
43163,55842
43157,55846
43152,55853
43155,55847
43160,55855
43154,55860
43154,55870
43150,55859
43155,55869
43159,55868
43140,55860
43157,55864
43150,55829
43130,55831
43128,55795
43124,55798
43141,55784
43128,55785
43128,55768
43124,55761
43127,55771
43120,55764
43128,55760
43126,55762
43131,55770
43144,55781
43124,55801
43139,55785
43130,55772
43136,55783
43120,55773
43135,55772
43128,55758
43133,55764
43136,55764
43122,55755
43117,55745
43123,55751
43119,55744
43128,55753
43115,55748
43121,55763
43134,55766
43124,55765
43129,55755
43119,55747
43125,55770
43128,55760
43130,55767
43133,55778
43128,55766
43136,55775
43115,55772
43121,55758
43127,55756
43128,55766
43129,55772
43129,55788
43125,55768
43124,55755
43130,55766
43141,55770
43131,55772
43120,55794
43122,55780
43128,55778
43129,55788
43125,55775
43134,55785
43129,55794
43139,55772
43133,55776
43120,55788
43137,55801
43130,55788
43137,55794
43126,55798
43133,55784
43128,55786
43141,55806
43138,55791
43131,55794
43123,55802
43131,55820
43132,55801
43159,55812
43135,55808
43140,55818
43142,55803
43151,55821
43149,55807
43153,55818
43131,55813
43133,55819
43144,55829
43143,55823
43148,55835
43150,55833
43153,55847
43149,55833
43146,55824
43144,55841
43140,55835
43147,55841
43142,55830
43148,55848
43144,55847
43150,55854
43153,55874
43150,55867
43159,55866
43149,55856
43144,55872
43158,55873
43147,55855
43145,55870
43159,55878
43143,55890
43141,55874
43153,55875
43158,55889
43154,55873
43156,55886
43171,55888
43168,55891
43167,55899
43161,55899
43177,55904
43164,55914
43154,55903
43169,55899
43165,55896
43171,55907
43172,55908
43170,55923
43183,55927
43183,55923
43185,55917
43164,55939
43173,55907
43188,55903
43171,55892
43173,55883
43143,55857
43145,55868
43138,55844
43141,55839
43153,55841
43143,55819
43154,55820
43136,55832
43155,55836
43144,55833
43154,55843
43153,55853
43146,55857
43149,55852
43146,55855
43156,55840
43158,55842
43147,55862
43145,55844
43138,55854
43142,55830
43151,55828
43146,55846
43145,55837
43145,55838
43187,55835
43149,55847
43151,55841
43140,55849
43136,55878
43152,55900
43150,55873
43156,55825
43165,55837
43143,55874
43160,55857
43164,55865
43157,55857
43153,55870
43169,55867
43145,55879
43180,55864
43174,55863
43163,55871
43143,55876
43133,55859
43154,55880
43149,55890
43147,55872
43165,55866
43159,55869
43161,55878
43154,55873
43160,55877
43143,55889
43164,55882
43171,55888
43161,55886
43156,55905
43161,55903
43159,55891
43174,55904
43153,55902
43159,55896
43180,55896
43175,55910
43160,55908
43164,55907
43179,55926
43154,55914
43174,55915
43178,55920
43178,55930
43179,55919
43168,55920
43189,55929
43186,55938
43172,55931
43168,55930
43174,55932
43194,55933
43187,55941
43186,55929
43174,55944
43174,55958
43180,55952
43172,55955
43171,55957
43183,55970
43175,55947
43185,55965
43167,55965
43184,55959
43187,55959
43178,55967
43182,55957
43182,55964
43204,55971
43180,55955
43184,55988
43177,55988
43192,55979
43183,55989
43202,55995
43190,56000
43182,56006
43174,55995
43196,56001
43179,56004
43211,55987
43193,56013
43186,56016
43191,56019
43200,56000
43198,56016
43190,56022
43203,56025
43195,56027
43196,56017
43190,56028
43189,55995
43182,55987
43169,55955
43186,55965
43163,55941
43174,55935
43162,55943
43164,55928
43166,55929
43169,55933
43173,55934
43181,55938
43169,55919
43173,55946
43170,55937
43169,55945
43160,55930
43171,55938
43174,55939
43176,55940
43155,55949
43174,55953
43168,55922
43167,55929
43147,55922
43167,55910
43153,55923
43152,55913
43159,55933
43173,55910
43172,55926
43167,55935
43163,55946
43157,55946
43179,55940
43169,55938
43181,55936
43163,55949
43168,55934
43161,55935
43180,55943
43162,55938
43171,55951
43168,55938
43169,55930
43163,55918
43164,55934
43168,55927
43175,55940
