44826,56227
44831,56224
44838,56237
44847,56228
44828,56237
44852,56250
44840,56252
44847,56260
44853,56269
44853,56279
44850,56282
44872,56299
44863,56295
44851,56296
44855,56276
44852,56253
44835,56193
44841,56197
44826,56148
44821,56128
44794,56117
44783,56065
44799,56039
44769,56023
44768,56021
44772,55989
44792,55985
44750,55980
44755,55972
44755,55968
44764,55965
44753,55970
44753,55944
44741,55911
44762,55903
44746,55912
44739,55903
44749,55889
44727,55892
44733,55872
44726,55882
44721,55861
44764,55833
44728,55847
44747,55858
44725,55858
44709,55851
44707,55847
44721,55870
44734,55868
44745,55850
44725,55836
44741,55863
44729,55862
44734,55855
44720,55854
44734,55853
44733,55851
44739,55847
44725,55840
44725,55831
44731,55850
44720,55837
44727,55854
44723,55846
44733,55860
44734,55862
44731,55841
44731,55850
44734,55878
44747,55881
44743,55872
44737,55879
44746,55893
44750,55900
44738,55885
44761,55909
44751,55926
44764,55889
44767,55915
44770,55934
44775,55936
44776,55937
44770,55946
44765,55949
44767,55972
44771,55953
44781,55954
44779,55963
44780,55990
44792,55982
44775,55993
44788,56001
44788,56020
44790,56012
44790,56016
44796,56018
44807,56017
44815,56028
44799,56049
44787,56060
44817,56057
44820,56068
44806,56072
44812,56067
44820,56070
44829,56088
44830,56085
44818,56091
44827,56099
44836,56100
44828,56116
44837,56113
44827,56133
44833,56141
44844,56136
44857,56143
44851,56148
44853,56160
44852,56169
44831,56171
44876,56192
44860,56177
44852,56190
44865,56211
44872,56200
44866,56206
44865,56233
44877,56217
44885,56241
44885,56241
44891,56243
44881,56257
44887,56265
44891,56263
44889,56287
44921,56281
44887,56282
44907,56289
44904,56297
44905,56318
44911,56303
44897,56297
44887,56275
44893,56244
44884,56211
44862,56184
44856,56151
44836,56109
44851,56085
44835,56055
44816,56036
44810,56011
44811,55997
44812,55995
44798,55973
44804,55981
44808,55983
44801,55985
44796,55979
44782,55968
44796,55960
44798,55944
44788,55944
44776,55927
44791,55917
44780,55904
44790,55904
44770,55902
44771,55885
44785,55871
44775,55862
44781,55881
44773,55858
44776,55883
44765,55884
44773,55884
44768,55886
44780,55883
44776,55893
44775,55894
44773,55896
44772,55890
44766,55884
44774,55880
44766,55887
44775,55878
44755,55870
44765,55892
44769,55867
44763,55866
44758,55861
44760,55886
44774,55873
44761,55876
44770,55886
44777,55887
44768,55896
44784,55903
44780,55894
44776,55906
44773,55901
44786,55929
44775,55922
44788,55942
44788,55938
44800,55926
44783,55944
44785,55940
44796,55968
44789,55959
44794,55954
44799,55961
44800,55960
44805,55977
44801,55977
44816,55970
44805,55984
44800,55977
44823,56001
44822,56008
44821,56012
44810,56021
44815,56019
44826,56033
44817,56034
44828,56045
44834,56048
44833,56060
44825,56055
44826,56065
44830,56061
44831,56087
44829,56079
44844,56067
44838,56107
44854,56091
44844,56093
44856,56113
44830,56122
44862,56103
44840,56126
44851,56119
44845,56131
44852,56149
44856,56152
44866,56143
44862,56169
44863,56168
44871,56174
44885,56168
44875,56191
44862,56190
44874,56190
44885,56194
44888,56192
44892,56213
44881,56214
44871,56213
44880,56202
44882,56203
44864,56193
44869,56141
44853,56095
44845,56077
44822,56038
44801,56009
44814,55971
44806,55958
44793,55940
44800,55907
44808,55909
44792,55906
44790,55874
44783,55881
44778,55871
44778,55878
44793,55887
44778,55912
44779,55871
44782,55875
44769,55810
44744,55805
44761,55804
44783,55833
44762,55809
44761,55804
44758,55818
44765,55802
44760,55803
44764,55812
44788,55811
44751,55804
44738,55806
44869,56141
44767,55795
44765,55806
44764,55808
44770,55794
44774,55803
44757,55794
44755,55784
44766,55798
44761,55796
44764,55776
44762,55785
44762,55803
44758,55770
44761,55794
44778,55797
44766,55797
44764,55820
44775,55798
44764,55803
44759,55818
44762,55813
44767,55826
44773,55803
44768,55830
44776,55836
44774,55840
44772,55845
44771,55844
44777,55851
44787,55857
44790,55878
44798,55883
44791,55895
44787,55885
44808,55875
44793,55901
44789,55914
44793,55911
44793,55916
44806,55931
44800,55927
44821,55940
44816,55937
44811,55941
44815,55948
44819,55949
44823,55966
44817,55965
44820,55981
44823,55975
44819,55984
44826,55990
44822,56002
44827,56020
44828,56030
44839,56010
44849,56025
44851,56038
44846,56040
44850,56048
44849,56055
44838,56065
44856,56074
44852,56061
44853,56070
44863,56070
44876,56081
44863,56094
44872,56090
44872,56103
44872,56104
44884,56132
44880,56120
44862,56120
44873,56127
44873,56124
44875,56114
44868,56099
44861,56047
44845,56014
44839,55988
44820,55950
44798,55911
44798,55881
44788,55870
44787,55847
44780,55837
44774,55805
44766,55780
44754,55796
44785,55781
44771,55763
44762,55763
44757,55751
44759,55738
44756,55730
44768,55722
44752,55725
44746,55728
44751,55691
44745,55679
44731,55686
44742,55668
44738,55657
44726,55655
44724,55654
44732,55641
44728,55663
44732,55648
44721,55650
44733,55669
44719,55679
44732,55660
44741,55660
44723,55650
44728,55653
44739,55662
44724,55682
44728,55644
44739,55646
44717,55656
44722,55646
44726,55647
44726,55649
44737,55652
44720,55649
44727,55644
44734,55653
44719,55655
44735,55667
44727,55697
44731,55696
44754,55705
44753,55698
44741,55701
44762,55694
44749,55705
44745,55725
44765,55736
44761,55739
44761,55745
44761,55756
44780,55750
44771,55760
44781,55759
44779,55780
44773,55779
44765,55795
44775,55784
44776,55793
44776,55779
44794,55794
44788,55806
44784,55815
44778,55822
44801,55833
44794,55826
44788,55842
44804,55844
44820,55844
44802,55862
44819,55863
44805,55877
44808,55888
44797,55882
44820,55897
44816,55901
44823,55920
44818,55916
44836,55907
44826,55917
44842,55932
44811,55959
44854,55946
44830,55940
44849,55959
44861,55967
44843,55981
44847,55992
44865,55985
44864,55999
44853,56005
44854,56033
44867,56016
44865,56019
44886,56030
44875,56028
44873,56043
44887,56058
44874,56060
44892,56057
44899,56077
44893,56079
44882,56082
44897,56094
44909,56106
44910,56119
44907,56111
44892,56095
44893,56076
44869,56059
44874,56016
44855,55982
44848,55948
44839,55908
44807,55875
44820,55849
44802,55820
44797,55795
44796,55792
44791,55771
44783,55776
44781,55759
44776,55745
44773,55743
44753,55745
44776,55737
44772,55733
44771,55729
44767,55735
44765,55715
44761,55716
44755,55704
44777,55694
44754,55681
44742,55677
44748,55667
44754,55668
44744,55666
44749,55684
44739,55685
44739,55667
44750,55658
44765,55659
44752,55643
44748,55668
44737,55664
44757,55661
44750,55681
44747,55670
44747,55669
44752,55661
44768,55658
44736,55646
44725,55661
44742,55647
44731,55649
44746,55670
44756,55670
44747,55666
44743,55668
44746,55677
44754,55686
44759,55676
44769,55684
44766,55698
44747,55709
44760,55702
44773,55708
44762,55725
44764,55717
44755,55732
44772,55740
44782,55740
44773,55757
44768,55760
44793,55758
44787,55751
44787,55790
44785,55780
44793,55783
44789,55782
44793,55793
44810,55796
44799,55787
44790,55819
44792,55821
44815,55807
44796,55816
44812,55813
44816,55838
44816,55852
44837,55860
44828,55866
44836,55864
44821,55866
44825,55858
44831,55874
44827,55881
44825,55895
44834,55899
44847,55903
44838,55898
44843,55902
44844,55889
44822,55867
44814,55844
44808,55805
44785,55759
44792,55744
44768,55685
44756,55674
44756,55661
44739,55626
44736,55627
44723,55603
44744,55576
44734,55578
44718,55595
44733,55582
44738,55571
44729,55554
44708,55547
44723,55524
44719,55526
44707,55514
44718,55504
44709,55489
44698,55481
44694,55459
44685,55457
44685,55455
44701,55462
44680,55451
44698,55455
44707,55459
44682,55459
44707,55459
44705,55471
44705,55485
44723,55470
44696,55515
44700,55485
44704,55497
44700,55477
44704,55491
44704,55483
44711,55493
44702,55491
44697,55482
44706,55494
44704,55487
44718,55497
44713,55498
44710,55489
44717,55514
44729,55516
44719,55510
44716,55523
44730,55534
44737,55525
44733,55557
44742,55560
44741,55563
44743,55581
44748,55561
44747,55577
44737,55589
44759,55582
44751,55605
44758,55590
44747,55616
44772,55624
44764,55629
44764,55639
44765,55650
44764,55650
44775,55655
44775,55657
44770,55666
44785,55668
44793,55676
44789,55685
44800,55701
44798,55701
44780,55717
44793,55742
44807,55756
44831,55724
44813,55739
44818,55746
44822,55747
44828,55767
44815,55772
44825,55787
44815,55787
44834,55790
44827,55803
44842,55807
44828,55817
44832,55830
44837,55836
44852,55847
44839,55844
44850,55851
44857,55872
44840,55873
44851,55881
44865,55875
44846,55882
44856,55907
44859,55911
44854,55909
44874,55937
44865,55931
44865,55943
44869,55952
44889,55944
44884,55949
44871,55961
44898,55986
44876,55968
44887,55982
44888,55989
44912,55999
44906,56010
44912,56009
44902,56003
44921,56038
44912,56042
44922,56044
44936,56058
44918,56050
44920,56051
44922,56027
44904,56020
44888,55999
44896,55961
44854,55928
44860,55897
44845,55860
44824,55832
44828,55802
44826,55769
44803,55732
44802,55731
44800,55705
44801,55715
44798,55706
44787,55691
44796,55713
44790,55696
44790,55687
44790,55675
44780,55672
44792,55671
44787,55647
44784,55639
44763,55630
44775,55604
44775,55598
44770,55608
44755,55591
44777,55575
44758,55589
44754,55587
44755,55641
44765,55608
44772,55626
44755,55604
44779,55613
44762,55583
44759,55611
44756,55623
44765,55617
44776,55614
44754,55613
44764,55625
44772,55627
44752,55608
44760,55614
44779,55620
44776,55608
44771,55630
44771,55643
44778,55662
44792,55625
44779,55629
44784,55635
44790,55654
44788,55665
44779,55675
44803,55674
44791,55660
44801,55686
44805,55691
44823,55717
44832,55721
44812,55725
44785,55718
44827,55734
44797,55733
44818,55757
44837,55747
44816,55762
44825,55774
44836,55764
44840,55784
44835,55786
44848,55793
44831,55796
44845,55819
44851,55823
44852,55811
44858,55831
44852,55848
44863,55854
44870,55836
44876,55862
44872,55881
44879,55884
44878,55895
44867,55877
44882,55913
44907,55914
44879,55912
44878,55916
44900,55926
44907,55939
44900,55945
44905,55951
44908,55952
44921,55983
44913,55987
44909,55970
44917,56000
44924,55995
44930,56013
44931,56020
44930,56022
44938,56033
44942,56045
44934,56035
44936,56061
44941,56070
44944,56084
44958,56071
44952,56087
44965,56093
44955,56123
44956,56112
44962,56117
44964,56136
44969,56140
44968,56170
44966,56121
44958,56114
44954,56099
44948,56080
44924,56049
44924,56007
44918,55976
44908,56004
44916,55961
44901,55957
44913,55964
44902,55945
44916,55949
44906,55944
44918,55914
44911,55948
44909,55932
44904,55950
44893,55942
44914,55952
44912,55950
44900,55930
44910,55925
44910,55939
44896,55920
44917,55938
44896,55925
44899,55927
44902,55934
44909,55935
44908,55936
44909,55947
44923,55948
44906,55958
44922,55963
44916,55954
44923,55951
44921,55971
44926,55980
44924,55975
44918,55965
44910,55981
44936,55985
44922,55974
44926,55998
44926,55987
44935,55990
44923,56005
44910,56022
44937,56012
44936,56011
44941,56025
44935,56014
44941,56030
44930,56037
44938,56048
44939,56059
44946,56054
44953,56075
44952,56074
44948,56083
44947,56090
44953,56110
44966,56116
44966,56104
44967,56121
44968,56126
44959,56125
44979,56134
44979,56151
44977,56150
44974,56160
44977,56171
44976,56172
44979,56189
44983,56175
45008,56201
44991,56205
44992,56203
44991,56237
45007,56247
45009,56247
45002,56236
45020,56265
45007,56258
45012,56262
44999,56266
45015,56280
45028,56302
45018,56297
45015,56297
45012,56286
45028,56332
45026,56331
45041,56333
45033,56334
45036,56339
45032,56358
45035,56374
45051,56377
45049,56381
45044,56392
45063,56381
45079,56416
45066,56406
45067,56434
45055,56427
45063,56434
45065,56432
45069,56446
45069,56447
45074,56460
45067,56462
45089,56487
45089,56489
45098,56505
45098,56504
45101,56496
45109,56506
45103,56529
45095,56532
45113,56523
45104,56525
45105,56513
45102,56515
45083,56468
45088,56469
45063,56466
45082,56430
45063,56428
45074,56421
45073,56398
45061,56399
45047,56414
45072,56396
45051,56406
45063,56407
45047,56411
45065,56417
45072,56428
45074,56417
45064,56415
45063,56417
45077,56421
45071,56431
45058,56403
45054,56414
45061,56402
45055,56387
45059,56407
45073,56401
45064,56419
45055,56400
45051,56416
45061,56424
45061,56424
45065,56434
45057,56437
45075,56439
45062,56444
45063,56444
45079,56429
45072,56445
45071,56450
45086,56445
45071,56454
45073,56440
45074,56447
45078,56445
45078,56461
45069,56462
45057,56449
45071,56457
45074,56464
45084,56482
45087,56504
45076,56482
45082,56456
45080,56462
45071,56483
45092,56509
45082,56512
45096,56516
45087,56525
45092,56525
45099,56513
45124,56526
45112,56527
45119,56537
45074,56523
45109,56543
45076,56556
45096,56548
45114,56566
45121,56566
45108,56570
45105,56591
45117,56577
45102,56597
45123,56591
45115,56601
45140,56611
45117,56602
45118,56597
45124,56632
45116,56602
45141,56628
45118,56632
45126,56626
45127,56634
45128,56648
45126,56643
45136,56657
45126,56654
45140,56662
45131,56668
45141,56677
45129,56686
45136,56682
45144,56708
45152,56698
45160,56695
45156,56709
45142,56715
45144,56723
45159,56720
45154,56731
45162,56741
45147,56742
45164,56744
45174,56757
45172,56767
45159,56767
45175,56775
45165,56781
45167,56781
45178,56786
45186,56789
45179,56797
45186,56802
45187,56826
45191,56806
45175,56813
45178,56816
45178,56828
45177,56817
45188,56849
45202,56843
45186,56854
45189,56856
45207,56881
45190,56849
45187,56830
45197,56818
45162,56809
45173,56795
45175,56762
45157,56750
45158,56749
45158,56736
45153,56728
45147,56710
45145,56700
45138,56708
45136,56712
45149,56699
45159,56733
45137,56725
45158,56722
45142,56716
45143,56741
45135,56729
45153,56712
45156,56715
45161,56700
45130,56699
45138,56713
45132,56705
45143,56693
45136,56713
45129,56695
45120,56704
45129,56704
45143,56699
45140,56690
45142,56694
45126,56703
45140,56713
45131,56714
45135,56697
45130,56709
45138,56690
45123,56699
45133,56705
45126,56704
45136,56690
45131,56679
45103,56682
45125,56689
45123,56681
45125,56695
45119,56698
45139,56684
45134,56695
45113,56694
45115,56688
45115,56705
45129,56701
45118,56710
45129,56693
45113,56696
45113,56705
45132,56720
45128,56716
45120,56713
45127,56716
45130,56725
45126,56728
45135,56711
45114,56722
45140,56714
45124,56720
45132,56716
45109,56744
45123,56743
45146,56742
45136,56737
45147,56743
45140,56736
45141,56743
45143,56736
45138,56747
45125,56767
45146,56744
45124,56761
45142,56752
45127,56759
45145,56767
45134,56773
45139,56788
45142,56778
45146,56780
45130,56782
45147,56771
45150,56798
45132,56786
45136,56786
45153,56808
45134,56797
45149,56806
45149,56806
45157,56812
45150,56820
45147,56828
45162,56840
45156,56818
45148,56831
45153,56838
45147,56844
45154,56830
45156,56837
45163,56841
45169,56879
45154,56856
45166,56854
45168,56860
45158,56843
45168,56851
45161,56878
45164,56872
45170,56879
45166,56891
45185,56880
45162,56874
45163,56847
45144,56828
45147,56805
45135,56792
45142,56756
45125,56746
45111,56721
45111,56723
45104,56712
45104,56697
45111,56703
45098,56687
45084,56662
45098,56692
45091,56683
45094,56681
45101,56685
45087,56676
45089,56655
45063,56652
45091,56656
45082,56627
45078,56637
45084,56634
45076,56636
45068,56627
45071,56607
45058,56600
45057,56590
45066,56591
45055,56592
45064,56591
45070,56610
45074,56607
45056,56589
45060,56596
45075,56588
45056,56582
45061,56595
45053,56588
45052,56573
45049,56569
45056,56561
45058,56582
45045,56556
45052,56541
45047,56557
45053,56574
45047,56583
45034,56584
45024,56555
45041,56544
45026,56525
45035,56553
45032,56541
45021,56562
45029,56554
45037,56571
45034,56565
45046,56571
45071,56578
45054,56560
45024,56595
45010,56581
45003,56574
45034,56587
45049,56587
45038,56605
45040,56587
45043,56589
45034,56597
45053,56589
45041,56592
45059,56601
45052,56606
45034,56599
45044,56597
45042,56598
45052,56596
45046,56608
45056,56610
45057,56590
45061,56614
45057,56619
45045,56621
45065,56621
45052,56625
45048,56622
45049,56631
45057,56644
45046,56635
45054,56639
45060,56640
45054,56656
45068,56650
45062,56654
45065,56669
45062,56674
45060,56673
45064,56657
45072,56663
45058,56676
45067,56674
45064,56677
45078,56689
45068,56695
45074,56703
45083,56695
45065,56705
45071,56714
45077,56711
45085,56720
45091,56727
45085,56721
45098,56726
45082,56733
45072,56724
45081,56739
45095,56745
45092,56749
45078,56771
45098,56755
45096,56756
45090,56769
45102,56761
45094,56784
45109,56772
45096,56794
45091,56807
45113,56797
45113,56796
45113,56798
45113,56808
45107,56810
45092,56795
45084,56775
45076,56749
45073,56717
45060,56702
45058,56676
45047,56653
45044,56622
45034,56615
45026,56595
45030,56599
45023,56593
45034,56571
45029,56595
45015,56585
45022,56566
45023,56578
45026,56563
45023,56553
45036,56576
45031,56559
45027,56560
45012,56551
45018,56533
45028,56553
45008,56539
45005,56519
45013,56501
45007,56494
44999,56513
45001,56502
45000,56514
45020,56495
44995,56508
44999,56513
44986,56491
44998,56493
44998,56494
45014,56493
45003,56498
44994,56490
44994,56486
44988,56490
44985,56479
45003,56481
44991,56486
44993,56476
44990,56461
44985,56447
44980,56468
44965,56470
44987,56461
45000,56457
44989,56474
44983,56477
44990,56460
44990,56477
44981,56468
44982,56466
44989,56455
44984,56491
44993,56470
44990,56483
44993,56490
44990,56475
44993,56491
44983,56499
44984,56493
45003,56493
44994,56512
44987,56506
44985,56506
44994,56493
45000,56506
44971,56501
44998,56511
44999,56517
44989,56504
45007,56519
44997,56531
44988,56535
45004,56519
44977,56534
44993,56536
44999,56523
44999,56536
45008,56545
45000,56538
45018,56566
44997,56561
45006,56556
45007,56540
45011,56567
45015,56564
44998,56565
45005,56560
45011,56574
45011,56587
45018,56590
45000,56575
45015,56587
45010,56602
45014,56590
45019,56606
45015,56606
45015,56589
45026,56604
45033,56616
45017,56612
45025,56619
45005,56620
45028,56639
45013,56637
45015,56622
45027,56626
45020,56612
45014,56602
44995,56562
44989,56547
44978,56511
44978,56488
44974,56474
44950,56454
44943,56433
44955,56436
44947,56414
44949,56391
44921,56392
44938,56390
44935,56391
44941,56376
44938,56375
44937,56364
44935,56352
44923,56354
44922,56360
44913,56326
44920,56328
44908,56326
44926,56328
44906,56319
44897,56298
44905,56304
44891,56299
44918,56276
44902,56277
44906,56289
44900,56281
44902,56264
44898,56287
44901,56271
44895,56262
44884,56266
44885,56253
44894,56265
44886,56241
44886,56240
44875,56247
44858,56247
44870,56249
44863,56246
44884,56257
44884,56262
44883,56208
44890,56192
44875,56226
44880,56232
44883,56227
44873,56238
44885,56227
44876,56252
44894,56238
44863,56249
44904,56246
44901,56251
44872,56243
44866,56264
44881,56263
44880,56253
44870,56265
44890,56270
44888,56252
44884,56279
44875,56290
44884,56278
44888,56280
44888,56293
44901,56296
44885,56291
44904,56303
44898,56302
44897,56303
44889,56312
44889,56323
44893,56326
44888,56317
44909,56319
44898,56335
44902,56319
44895,56328
44909,56336
44902,56342
44903,56347
44900,56350
44907,56361
44929,56364
44909,56350
44929,56370
44922,56382
44920,56381
44916,56378
44928,56373
44929,56395
44923,56386
44927,56397
44932,56396
44943,56400
44934,56400
44945,56408
44943,56430
44931,56421
44942,56418
44940,56425
44938,56426
44941,56429
44945,56420
44927,56421
44936,56407
44942,56384
44916,56361
44907,56325
44897,56289
44902,56281
44885,56247
44867,56219
44852,56188
44851,56178
44859,56159
44854,56156
44850,56145
44842,56132
44833,56135
44850,56128
44846,56117
44844,56094
44841,56088
44838,56088
44837,56077
44821,56058
44823,56052
44818,56038
44819,56029
44816,56012
44819,55998
44801,56013
44800,55977
44802,55985
44807,55993
44813,55979
44818,55965
44821,55978
44822,55974
44811,55986
44820,55972
44812,55984
44813,55975
44816,55980
44823,55972
44823,55954
44821,55971
44811,55966
44802,55948
44801,55946
44813,55961
44813,55932
44805,55934
44797,55936
44815,55944
44812,55939
44816,55938
44820,55945
44803,55956
44819,55958
44817,55960
44819,55939
44821,55950
44822,55971
44837,55960
44837,55964
44838,55979
44840,55982
44830,55982
44836,55982
44830,55980
44835,55978
44843,55999
44853,55987
44842,55992
44841,56004
44852,56013
44857,55999
44867,56010
44865,56021
44851,56026
44862,56020
44859,56020
44867,56029
44867,56028
44863,56032
44879,56047
44879,56055
44876,56061
44874,56056
44884,56078
44889,56065
44886,56079
44879,56073
44876,56075
44904,56071
44888,56079
44880,56092
44900,56083
44909,56087
44910,56113
44897,56102
44920,56128
44908,56120
44913,56120
44924,56114
44925,56148
44935,56145
44928,56159
44928,56152
44938,56158
44925,56166
44940,56161
44940,56148
44945,56165
44950,56191
44944,56184
44956,56183
44963,56185
44953,56202
44971,56208
44938,56201
44947,56173
44946,56156
44940,56141
44919,56104
44908,56059
44901,56046
44894,55992
44894,55962
44881,55955
44886,55917
44865,55922
44856,55903
44862,55883
44863,55883
44861,55874
44858,55886
44864,55857
44864,55874
44876,55867
44858,55852
44861,55860
44857,55826
44841,55831
44840,55811
44838,55803
44840,55791
44856,55804
44841,55787
44850,55763
44842,55786
44833,55772
44839,55771
44844,55780
44848,55780
44841,55770
44855,55779
44851,55774
44832,55770
44838,55779
44853,55767
44836,55760
44834,55771
44843,55750
44847,55778
44828,55747
44839,55754
44845,55748
44850,55752
44844,55745
44837,55748
44849,55751
44851,55758
44853,55764
44849,55772
44845,55775
44850,55764
44855,55765
44848,55762
44836,55782
44854,55800
44868,55816
44856,55819
44872,55825
44875,55779
44854,55794
44879,55802
44870,55820
44890,55832
44880,55847
44879,55845
44888,55850
44897,55859
44873,55858
44916,55871
44880,55847
44873,55864
44828,55747
44902,55869
44901,55885
44896,55890
44897,55891
44893,55884
44913,55891
44901,55901
44922,55920
44927,55924
44923,55936
44922,55936
44910,55946
44906,55940
44914,55949
44924,55949
44925,55963
44930,55952
44918,55975
44926,55940
44904,55917
44910,55893
44895,55870
44887,55839
44878,55810
44860,55777
44860,55768
44849,55741
44863,55734
44841,55718
44856,55724
44841,55712
44853,55706
44838,55704
44848,55714
44838,55684
44836,55677
44837,55685
44838,55659
44824,55659
44838,55655
44842,55654
44814,55644
44826,55623
44831,55615
44814,55602
44819,55610
44814,55627
44826,55620
44818,55603
44830,55624
44827,55642
44827,55646
44825,55625
44844,55655
44839,55660
44855,55655
44835,55652
44833,55657
44848,55637
44831,55666
44850,55640
44843,55628
44828,55652
44836,55659
44834,55652
44846,55675
44840,55662
44842,55675
44844,55676
44851,55679
44857,55681
44856,55693
44881,55709
44868,55695
44854,55718
44859,55709
44880,55733
44869,55739
44872,55754
44872,55747
44878,55762
44878,55768
44878,55770
44874,55781
44880,55779
44888,55801
44890,55804
44893,55801
44881,55817
44899,55816
44901,55828
44906,55833
44899,55848
44925,55856
44916,55843
44914,55880
44914,55880
44922,55903
44927,55877
44929,55895
44924,55911
44933,55918
44938,55922
44941,55947
44937,55956
44948,55945
44932,55953
44952,55962
44958,55985
44933,55975
44964,55995
44966,55983
44967,56013
44967,56022
44974,56033
44971,56025
44966,56042
44957,56051
44984,56044
44981,56063
44979,56063
44981,56086
44978,56079
45006,56108
45007,56111
45012,56121
45006,56107
44992,56120
44996,56139
45012,56135
45010,56149
45025,56144
45019,56160
45031,56164
45022,56182
45014,56198
45031,56204
45026,56198
45029,56226
45027,56205
45035,56242
45049,56229
45054,56233
45056,56254
45039,56232
45041,56249
45031,56224
45037,56197
45026,56191
45016,56176
45019,56150
45014,56135
44996,56125
44999,56115
45010,56117
44999,56092
45005,56104
44991,56110
44999,56118
45004,56114
45002,56124
45012,56110
45000,56133
45011,56119
45010,56123
44997,56110
45014,56115
45010,56112
45011,56104
45010,56102
45001,56112
44996,56097
44993,56099
45020,56107
45009,56106
45015,56113
44993,56115
45002,56141
45004,56115
45000,56126
44987,56137
44992,56122
45010,56131
45007,56128
45018,56132
44992,56130
45012,56135
45010,56123
44998,56125
45009,56125
45016,56137
45009,56132
45011,56142
45016,56144
45012,56150
45020,56145
45012,56163
45013,56169
45010,56161
45021,56159
45006,56176
45013,56181
45003,56160
45013,56180
45027,56177
45013,56190
45021,56189
45016,56208
45020,56207
45025,56208
45025,56215
45019,56249
45014,56216
45019,56233
45024,56224
45029,56241
45032,56226
45027,56250
45044,56242
45036,56235
45028,56240
45032,56246
45039,56269
45051,56280
45065,56278
45048,56287
45022,56300
45049,56304
45058,56308
45038,56322
45041,56337
45050,56288
45066,56297
45059,56318
45068,56324
45050,56339
45051,56334
45060,56349
45048,56358
45053,56363
45062,56370
45090,56363
45076,56387
45062,56388
45014,56216
45078,56370
45078,56390
45079,56405
45075,56394
45060,56366
45054,56372
45046,56348
45051,56324
45046,56307
45047,56297
45035,56297
45032,56277
45038,56269
45039,56263
45012,56278
45025,56273
45029,56284
45037,56291
45034,56295
45040,56287
45041,56292
45030,56291
45030,56276
45023,56282
45022,56273
45020,56273
45019,56258
45022,56263
45026,56263
45016,56257
45020,56266
45025,56259
45026,56267
45023,56266
45037,56268
45023,56277
45019,56295
45029,56274
45031,56285
45035,56282
45014,56282
45020,56303
45010,56287
45009,56283
45023,56280
45011,56293
45005,56304
45011,56289
45020,56298
45019,56306
45022,56291
45022,56306
45018,56322
45016,56316
45025,56306
45021,56296
45021,56338
45013,56328
45021,56326
45023,56328
45033,56339
45033,56327
45035,56341
45020,56354
45043,56348
45045,56357
45035,56363
45022,56362
45040,56360
45043,56398
45037,56383
45047,56387
45044,56386
45045,56387
45049,56400
45035,56373
45060,56417
45026,56399
45046,56408
45043,56419
45046,56423
45039,56422
45048,56439
45048,56436
45059,56435
45055,56456
45045,56445
45050,56461
45057,56474
45072,56479
45073,56452
45046,56474
45059,56480
45064,56467
45074,56468
45064,56490
45062,56497
45057,56510
45086,56500
45067,56514
45077,56522
45072,56529
45084,56548
45069,56540
45083,56538
45076,56541
45097,56564
45097,56557
45073,56562
45089,56555
45074,56572
45089,56572
45093,56587
45108,56600
45092,56601
45090,56596
45105,56601
45102,56603
45097,56615
45099,56612
45103,56614
45103,56637
45099,56638
45106,56628
45116,56638
45112,56653
45121,56656
45113,56649
45106,56657
45114,56661
45114,56661
45115,56666
45114,56668
45115,56672
45121,56686
45123,56690
45129,56696
45131,56686
45099,56662
45116,56655
45096,56625
45100,56616
45089,56597
45077,56589
45069,56575
45078,56581
45073,56571
45062,56546
45075,56561
45086,56555
45084,56582
45079,56575
45081,56587
45084,56565
45070,56584
45077,56577
45083,56572
45085,56573
45077,56565
45082,56569
45074,56563
45076,56544
45066,56547
45060,56550
45065,56549
45060,56539
45065,56544
45065,56533
45062,56538
45057,56543
45063,56545
45062,56556
45063,56546
45055,56557
45056,56545
45071,56569
45066,56562
45047,56536
45059,56550
45046,56558
45052,56541
45054,56530
45067,56551
45044,56557
45046,56548
45039,56562
45036,56533
45033,56539
45056,56536
45037,56547
45058,56548
45050,56552
45038,56541
45043,56562
45020,56555
45042,56559
45050,56561
45046,56568
45040,56579
45038,56555
45045,56567
45051,56574
45055,56571
45054,56581
45037,56578
45047,56585
45044,56578
45042,56574
45054,56580
45044,56585
45051,56590
45052,56584
45047,56589
45050,56578
45055,56590
45052,56598
45061,56599
45056,56600
45040,56603
45061,56616
45043,56604
45080,56600
45037,56614
45045,56620
45048,56607
45053,56623
45043,56632
45049,56656
45048,56616
45055,56616
45064,56643
45051,56633
45052,56631
45064,56650
45063,56661
45055,56653
45057,56655
45068,56671
45090,56657
45087,56657
45068,56652
45055,56662
45051,56590
45046,56673
45054,56682
45061,56687
45064,56690
45056,56687
45066,56693
45067,56688
45069,56684
45061,56701
45062,56701
45064,56723
45064,56703
45052,56703
45075,56684
45044,56675
45026,56654
45030,56629
45034,56617
45020,56597
45037,56563
45010,56571
45003,56543
45005,56559
45006,56553
45015,56551
45011,56543
45003,56538
45001,56543
45004,56548
44991,56544
45011,56528
44998,56531
44990,56538
44990,56524
44990,56513
44987,56521
44992,56500
44960,56509
44964,56483
44969,56489
44966,56481
44970,56488
44976,56483
44963,56489
44976,56488
44975,56470
44971,56485
44983,56486
44970,56508
44957,56476
44969,56471
44969,56474
44961,56464
44959,56458
44956,56473
44950,56459
44952,56456
44950,56449
44953,56457
44951,56449
44951,56427
44951,56452
44930,56450
44938,56453
44950,56456
44947,56463
44948,56455
44938,56439
44940,56450
44950,56466
44958,56463
44948,56453
44945,56459
44945,56455
44947,56465
44935,56440
44950,56464
44946,56464
44941,56477
44950,56473
44949,56476
44936,56461
44947,56469
44952,56480
44954,56482
44944,56481
44950,56476
44940,56473
44970,56482
44951,56488
44953,56494
44950,56485
44948,56495
44941,56502
44950,56499
44960,56506
44952,56509
44945,56493
44965,56506
44952,56521
44959,56521
44942,56508
44952,56515
44964,56516
44964,56528
44957,56530
44959,56531
44975,56542
44965,56525
44964,56534
44950,56528
44963,56546
44962,56554
44954,56556
44973,56550
44977,56567
44958,56561
44962,56572
44981,56580
44986,56579
44972,56586
44984,56569
44971,56586
44979,56587
44986,56595
44991,56589
44984,56584
44984,56602
44971,56602
44984,56613
44980,56609
44972,56619
44985,56615
44986,56596
44976,56596
44964,56559
44954,56556
44959,56536
44953,56495
44939,56484
44926,56447
44932,56453
44929,56443
44918,56442
44934,56436
44919,56410
44927,56441
44910,56407
44917,56427
44915,56418
44924,56430
44912,56416
44917,56403
44890,56418
44904,56409
44905,56388
44901,56384
44893,56385
44897,56370
44882,56360
44893,56373
44888,56351
44893,56355
44899,56352
44906,56345
44892,56349
44885,56369
44893,56370
44903,56361
44898,56356
44903,56358
44888,56354
44898,56346
44893,56373
44869,56349
44899,56349
44882,56340
44896,56332
44885,56344
44877,56317
44876,56341
44873,56321
44882,56321
44879,56346
44889,56327
44887,56325
44888,56325
44879,56347
44873,56332
44886,56345
44875,56353
44879,56337
44880,56354
44906,56338
44900,56357
44900,56362
44886,56377
44885,56351
44887,56362
44892,56359
44881,56364
44895,56375
44892,56388
44889,56369
44897,56384
44898,56381
44892,56405
44895,56402
44896,56401
44907,56398
44904,56387
44901,56390
44903,56392
44911,56378
44896,56406
44916,56408
44916,56428
44908,56413
44913,56422
44912,56427
44921,56411
44917,56417
44925,56443
44913,56455
44924,56439
44915,56445
44905,56464
44924,56476
44936,56470
44932,56455
44928,56460
44924,56450
44937,56474
44925,56481
44932,56489
44937,56489
44938,56504
44947,56516
44953,56499
44944,56509
44961,56512
44942,56527
44943,56516
44918,56522
44931,56539
44944,56541
44957,56555
44964,56553
44955,56553
44967,56534
44967,56540
44958,56550
44952,56523
44943,56490
44942,56462
44928,56440
44919,56441
44912,56407
44912,56421
44909,56404
44897,56410
44912,56380
44909,56403
44907,56402
44902,56408
44932,56396
44908,56402
44909,56411
44905,56410
44908,56407
44910,56402
44899,56409
44905,56394
44895,56406
44919,56400
44913,56392
44907,56387
44905,56380
44896,56376
44911,56394
44909,56389
44911,56407
44910,56393
44925,56413
44921,56399
44910,56411
44921,56416
44914,56401
44915,56416
44921,56402
44912,56404
44917,56408
44914,56412
44910,56404
44917,56402
44919,56422
44937,56407
44907,56411
44914,56425
44911,56422
44924,56435
44918,56428
44923,56432
44927,56429
44933,56419
44912,56452
44933,56439
44922,56454
44925,56432
44930,56470
44921,56462
44935,56471
44920,56464
44954,56474
44939,56484
44938,56486
44947,56488
44936,56500
44948,56502
44962,56498
44949,56514
44946,56509
44957,56519
44944,56522
44957,56526
44953,56539
44951,56521
44948,56543
44953,56559
44958,56551
44959,56529
44972,56556
44952,56562
44969,56546
44974,56571
44970,56564
44963,56569
44982,56583
44991,56601
44972,56593
44989,56598
44992,56607
44978,56599
44978,56602
44985,56619
44987,56616
44989,56619
44992,56629
44986,56632
44990,56643
44974,56640
44994,56656
44998,56644
44997,56657
45017,56662
45018,56663
45000,56662
44999,56695
45000,56680
45013,56685
44990,56649
44994,56640
44989,56614
44990,56598
44986,56593
44981,56595
44980,56577
44970,56564
44971,56586
44973,56572
44974,56574
44970,56595
44968,56583
44979,56604
44971,56593
44989,56595
44977,56610
44977,56623
44988,56608
44975,56613
44976,56590
44974,56587
44974,56615
44993,56597
44992,56599
44986,56592
44978,56598
44980,56600
44980,56617
44984,56602
44973,56600
44989,56643
45004,56639
44992,56627
44977,56653
45006,56655
44993,56638
44993,56662
44992,56655
45002,56635
44998,56652
44998,56635
45009,56669
44993,56659
44997,56655
44986,56660
44977,56671
45009,56663
45000,56662
44994,56667
45020,56685
44997,56681
45014,56691
45011,56701
45006,56691
45003,56689
45008,56696
45003,56708
45004,56726
45011,56719
45001,56713
45016,56726
45005,56732
45026,56737
45016,56733
45028,56739
45029,56747
45025,56761
45033,56768
45033,56761
45037,56752
45042,56760
45031,56765
45033,56776
45033,56774
45034,56792
45051,56796
45048,56783
45045,56791
45049,56798
45046,56809
45054,56801
45065,56831
45056,56818
45053,56817
45058,56811
45057,56830
45054,56828
45055,56836
45064,56855
45048,56851
45051,56855
45067,56845
45058,56854
45070,56854
45065,56882
45083,56888
45079,56895
45073,56907
45076,56882
45082,56901
45076,56892
45079,56904
45093,56907
45073,56910
45080,56929
45079,56920
45067,56915
45097,56928
45082,56941
45085,56933
45089,56942
45089,56981
45103,57002
45113,56977
45104,56966
45101,56906
45101,56923
45085,56880
45089,56887
45072,56873
45065,56879
45066,56873
45072,56876
45081,56868
45091,56860
45114,56882
45094,56890
45076,56901
45049,56891
45073,56907
45075,56917
45086,56926
45093,56909
45094,56932
45096,56915
45087,56921
45090,56931
45099,56917
45078,56917
45092,56925
45092,56947
45095,56916
45103,56949
45095,56933
45108,56949
45092,56956
45108,56961
45111,56943
45104,56947
45097,56965
45121,56966
45103,56958
45090,56975
45121,56973
45107,56975
45099,56970
45103,56968
45094,56951
45112,56993
45106,56977
45112,56965
45113,56990
45115,56980
45111,57004
45121,56986
45116,57004
45099,57005
45112,57010
45111,57008
45115,57026
45128,56999
45118,57031
45116,57015
45134,57025
45121,57054
45119,57026
45145,57037
45117,57042
45127,57036
45120,57050
45121,57047
45117,57054
45118,57059
45115,57056
45146,57055
45147,57063
45146,57059
45132,57080
45135,57079
45134,57087
45140,57093
45135,57074
45140,57083
45154,57085
45143,57100
45144,57102
45139,57116
45151,57120
45142,57111
45156,57114
45154,57113
45139,57113
45152,57129
45159,57133
45151,57145
45141,57137
45166,57140
45157,57145
45155,57152
45165,57150
45164,57157
45144,57167
45165,57170
45156,57176
45176,57184
45171,57179
45164,57176
45172,57188
45182,57180
45174,57192
45166,57198
45179,57179
45153,57162
45148,57168
45147,57139
45146,57137
45143,57131
45142,57110
45141,57122
45144,57104
45142,57104
45150,57113
45143,57104
45149,57098
45163,57123
45143,57127
45156,57131
45152,57140
45162,57143
45149,57138
45153,57147
45167,57145
45166,57131
45150,57131
45151,57127
45151,57124
45142,57134
45153,57120
45140,57129
45146,57133
45153,57115
45158,57145
45154,57136
45150,57158
45154,57156
45162,57152
45152,57161
45147,57149
45155,57167
45159,57159
45163,57175
45151,57165
45147,57156
45162,57168
45173,57158
45146,57158
45154,57155
45153,57163
45155,57164
45157,57167
45148,57164
45156,57184
45157,57178
45152,57176
45163,57177
45157,57178
45161,57180
45165,57175
45167,57197
45175,57198
45154,57204
45154,57208
45167,57217
45164,57194
45176,57209
45158,57229
45168,57212
45178,57224
45168,57231
45163,57219
45169,57222
45172,57233
45174,57226
45175,57238
45168,57235
45165,57249
45162,57240
45156,57253
45190,57234
45179,57249
45183,57242
45173,57263
45179,57251
45181,57266
45173,57257
45194,57274
45175,57283
45171,57285
45185,57286
45167,57288
45187,57276
45185,57291
45177,57268
45179,57299
45196,57305
45197,57304
45178,57297
45194,57297
45191,57313
45184,57308
45182,57318
45194,57318
45201,57305
45196,57321
45192,57328
45205,57332
45199,57337
45202,57340
45212,57355
45192,57332
45211,57353
45191,57345
45203,57357
45210,57351
45208,57367
45196,57360
45199,57367
45197,57373
45210,57371
45211,57368
45211,57383
45218,57369
45214,57418
45219,57394
45211,57381
45211,57408
45216,57399
45199,57379
45208,57373
45211,57365
45199,57348
45197,57339
45197,57325
45187,57308
45187,57291
45180,57295
45171,57271
45144,57297
45175,57286
45181,57311
45185,57317
45174,57291
45194,57255
45177,57282
45200,57299
45182,57324
45188,57322
45176,57313
45188,57299
45170,57305
45198,57291
45162,57298
45211,57277
45163,57288
45154,57280
45219,57394
45178,57298
45175,57292
45181,57285
45193,57292
45156,57322
45169,57315
45183,57298
45177,57309
45178,57302
45178,57304
45189,57304
45167,57286
45174,57284
45181,57291
45164,57282
45184,57300
45180,57282
45153,57289
45181,57287
45170,57289
45177,57299
45176,57305
45156,57301
45170,57306
45171,57304
45167,57314
45181,57313
45189,57311
45169,57315
45179,57322
45170,57326
45175,57322
45182,57320
45170,57316
45161,57321
45163,57325
45185,57325
45179,57319
45169,57329
45173,57341
45172,57330
45183,57338
45172,57322
45176,57325
45170,57336
45176,57340
45174,57328
45170,57346
45174,57343
45171,57341
45164,57343
45166,57350
45170,57344
45162,57343
45177,57344
45161,57359
45172,57359
45168,57352
45180,57362
45176,57358
45158,57358
45176,57366
45171,57363
45164,57352
45182,57368
45168,57380
45190,57373
45181,57377
45170,57376
45186,57377
45181,57382
45182,57395
45183,57386
45173,57386
45181,57376
45172,57401
45180,57404
45177,57404
45192,57401
45185,57402
45184,57401
45190,57402
45180,57420
45203,57410
45179,57426
45179,57428
45181,57431
45188,57402
45171,57394
45170,57356
45154,57358
45162,57333
45150,57310
45151,57310
45136,57287
45132,57287
45149,57272
45114,57273
45124,57266
45120,57263
45136,57273
45118,57269
45129,57251
45121,57261
45129,57261
45117,57263
45137,57256
45113,57261
45111,57254
45102,57264
45118,57242
45102,57218
45114,57196
45091,57213
45108,57223
45102,57203
45090,57188
45103,57213
45113,57212
45106,57208
45104,57215
45084,57207
45106,57215
45088,57209
45090,57198
45089,57198
45092,57186
45086,57170
45094,57160
45085,57165
45080,57176
45081,57167
45076,57172
45078,57170
45080,57178
45076,57181
45088,57163
45084,57174
45077,57154
45074,57163
45057,57166
45085,57174
45079,57167
45078,57162
45065,57179
45073,57171
45070,57162
45090,57177
45091,57184
45086,57168
45079,57178
45064,57168
45068,57162
45060,57163
45083,57170
45081,57156
45075,57173
45081,57165
45065,57178
45068,57170
45069,57178
45064,57175
45071,57163
45072,57166
45066,57182
45074,57178
45077,57174
45072,57186
45060,57204
45082,57197
45083,57186
45065,57190
45079,57184
45075,57200
45077,57186
45059,57196
45083,57195
45081,57226
45068,57209
45073,57199
45077,57202
45072,57203
45077,57204
45069,57215
45081,57201
45063,57224
45079,57209
45067,57214
45074,57203
45076,57208
45069,57203
45077,57212
45075,57234
45069,57224
45069,57237
45067,57227
45081,57225
45072,57235
45081,57242
45089,57243
45088,57237
45080,57238
45068,57239
45077,57229
45085,57246
45082,57253
45079,57263
45087,57261
45095,57262
45092,57261
45079,57246
45083,57263
45073,57228
45074,57214
45059,57195
45037,57180
45048,57145
45044,57109
45024,57097
45031,57094
45026,57081
45011,57073
45024,57063
45009,57069
45011,57062
45004,57062
45069,57237
45018,57055
45015,57080
45009,57089
45009,57060
45007,57012
44998,57012
45003,57011
45009,57015
44989,57002
44993,57001
44995,56996
44999,56984
44998,56976
44985,56995
45008,56973
44979,56981
44957,56978
44956,56977
44995,56978
44985,56967
44992,56966
44984,56966
44965,56975
44982,56969
44969,56965
44962,56958
44974,56955
44968,56958
44965,56919
44968,56937
44968,56933
44972,56939
44967,56930
44952,56919
44961,56932
44958,56919
44953,56923
44961,56911
44960,56920
44944,56902
44960,56919
44954,56927
44962,56925
44969,56923
44965,56919
44947,56924
44963,56917
44968,56918
44980,56925
44959,56913
44955,56924
44947,56927
44962,56926
44962,56915
44944,56917
44962,56925
44951,56922
44960,56912
44952,56927
44955,56935
44947,56931
44948,56934
44954,56923
44957,56925
44956,56935
44944,56937
44947,56933
44958,56925
44955,56935
44948,56918
44960,56940
44954,56932
44965,56941
44949,56938
44941,56945
44954,56932
44947,56955
44948,56950
44956,56949
44949,56948
44948,56950
44952,56932
44959,56960
44971,56963
44945,56962
44954,56954
44960,56955
44960,56960
44945,56968
44951,56960
44963,56970
44962,56960
44957,56964
44961,56963
44976,56963
44964,56975
44971,56982
44969,56971
44977,56985
44960,56986
44964,56986
44965,56997
44965,56984
44956,56972
44958,56972
44928,56919
44938,56923
44936,56905
44912,56868
44906,56846
44906,56833
44890,56808
44891,56785
44899,56777
44876,56761
44887,56780
44890,56752
44878,56744
44880,56747
44878,56755
44874,56747
44873,56746
44882,56739
44864,56731
44871,56721
44861,56714
44863,56717
44856,56699
44863,56700
44840,56686
44851,56683
44852,56658
44840,56660
44841,56660
44834,56661
44852,56655
44843,56650
44847,56651
44840,56648
44825,56654
44840,56652
44843,56644
44837,56653
44838,56631
44834,56624
44826,56619
44822,56621
44827,56613
44811,56592
44825,56611
44814,56599
44816,56600
44828,56604
44823,56599
44816,56608
44819,56595
44818,56593
44826,56598
44822,56602
44820,56595
44813,56585
44822,56593
44834,56594
44807,56598
44838,56590
44826,56605
44815,56589
44811,56585
44818,56594
44809,56615
44823,56601
44826,56602
44820,56614
44805,56602
44832,56614
44819,56606
44822,56594
44825,56605
44805,56614
44821,56607
44818,56606
44818,56614
44812,56624
44816,56607
44811,56612
44818,56616
44829,56611
44826,56619
44831,56613
44819,56639
44828,56631
44822,56638
44834,56628
44830,56645
44825,56626
44828,56634
44825,56639
44838,56655
44837,56641
44834,56646
44835,56660
44825,56644
44842,56655
44827,56657
44843,56649
44839,56658
44840,56659
44838,56680
44847,56666
44852,56676
44846,56672
44854,56677
44839,56671
44851,56689
44850,56694
44847,56701
44867,56685
44851,56698
44835,56699
44847,56704
44850,56713
44859,56705
44842,56732
44856,56710
44853,56719
44869,56708
44860,56727
44873,56727
44857,56702
44848,56719
44837,56674
44827,56642
44819,56620
44808,56588
44799,56549
44802,56535
44791,56523
44790,56498
44759,56482
44767,56475
44773,56463
44770,56455
44772,56454
44762,56444
44754,56443
44768,56440
44743,56415
44772,56448
44765,56448
44748,56391
44736,56369
44750,56365
44738,56368
44746,56365
44736,56363
44736,56353
44739,56339
44736,56332
44738,56324
44741,56333
44735,56324
44709,56328
44691,56334
44717,56337
44716,56329
44728,56332
44721,56327
44735,56315
44728,56316
44726,56320
44715,56303
44712,56291
44719,56286
44725,56293
44715,56299
44705,56288
44705,56291
44710,56279
44708,56283
44705,56290
44706,56277
44700,56267
44697,56278
44715,56290
44706,56285
44712,56287
44698,56287
44717,56284
44725,56292
44726,56305
44711,56294
44717,56303
44730,56291
44725,56302
44719,56306
44725,56308
44735,56317
44722,56318
44721,56325
44732,56324
44723,56315
44735,56323
44720,56331
44725,56335
44732,56333
44725,56338
44741,56340
44736,56339
44732,56335
44750,56327
44758,56342
44742,56361
44734,56359
44736,56351
44749,56364
44745,56355
44741,56381
44747,56379
44745,56388
44753,56381
44759,56394
44754,56386
44749,56404
44754,56400
44756,56399
44760,56405
44759,56398
44766,56421
44771,56426
44775,56427
44774,56435
44776,56418
44765,56424
44764,56451
44783,56444
44783,56456
44788,56460
44787,56471
44780,56471
44804,56459
44797,56466
44795,56468
44796,56484
44790,56471
44792,56498
44800,56481
44792,56502
44802,56492
44804,56508
44800,56511
44802,56516
44822,56514
44811,56514
44822,56527
44797,56524
44821,56527
44803,56487
44787,56466
44775,56440
44777,56415
44776,56382
44762,56352
44736,56314
44740,56289
44743,56289
44746,56258
44723,56257
44726,56250
44728,56254
44733,56237
44723,56257
44736,56237
44722,56250
44729,56235
44739,56231
44731,56220
44717,56215
44729,56199
44708,56200
44721,56186
44725,56190
44719,56185
44712,56169
44715,56168
44707,56163
44710,56161
44724,56162
44716,56155
44712,56161
44701,56164
44715,56158
44723,56156
44698,56153
44711,56140
44710,56137
44698,56142
44713,56122
44706,56125
44714,56139
44717,56117
44723,56129
44695,56108
44703,56101
44704,56107
44708,56106
44701,56114
44708,56117
44707,56122
44706,56110
44723,56123
44704,56119
44710,56118
44723,56134
44730,56121
44716,56121
44720,56129
44719,56129
44730,56131
44728,56148
44726,56133
44727,56148
44733,56159
44734,56147
44738,56151
44748,56151
44737,56147
44748,56155
44743,56151
44753,56152
44750,56161
44737,56169
44760,56172
44750,56170
44761,56170
44770,56166
44774,56173
44768,56181
44771,56182
44766,56192
44787,56188
44778,56182
44777,56206
44773,56188
44777,56210
44779,56209
44768,56200
44785,56209
44795,56211
44792,56218
44802,56240
44795,56242
44814,56239
44801,56228
44811,56242
44811,56243
44805,56251
44819,56261
44804,56266
44820,56257
44827,56270
44813,56272
44829,56280
44827,56282
44817,56283
44822,56294
44828,56315
44836,56303
44823,56306
44831,56309
44837,56322
44834,56330
44859,56320
44839,56317
44833,56292
44831,56263
44807,56235
44808,56202
44801,56169
44788,56135
44783,56084
44773,56087
44752,56066
44755,56047
44742,56038
44742,56008
44750,56032
44757,56005
44749,55996
44749,56006
44762,56002
44739,56004
44747,55990
44754,55980
44744,55963
44734,55970
44748,55934
44744,55925
44732,55903
44726,55913
44722,55892
44727,55888
44720,55890
44726,55901
44735,55897
44719,55901
44730,55896
44731,55898
44740,55892
44723,55899
44704,55886
44702,55893
44710,55895
44724,55876
44736,55883
44713,55859
44731,55859
44732,55872
44735,55879
44719,55864
44733,55870
44734,55875
44724,55864
44727,55859
44724,55861
44732,55867
44726,55858
44735,55877
44740,55877
44734,55884
44736,55892
44737,55894
44745,55888
44742,55907
44740,55904
44750,55923
44752,55905
44755,55918
44754,55914
44752,55944
44765,55932
44773,55939
44766,55923
44769,55942
44763,55945
44766,55943
44770,55937
44764,55951
44776,55941
44774,55957
44766,55972
44779,55964
44776,55965
44783,55977
44781,55992
44787,55985
44792,55989
44779,56005
44792,56013
44788,55999
44800,56002
44805,56009
44815,56018
44806,56025
44808,56024
44818,56049
44814,56048
44825,56038
44826,56051
44818,56065
44827,56062
44831,56074
44841,56071
44825,56078
44853,56089
44841,56095
44843,56113
44857,56112
44862,56106
44860,56112
44851,56107
44857,56112
44865,56126
44867,56126
44858,56156
44861,56149
44864,56151
44871,56153
44878,56164
44866,56171
44874,56167
44866,56173
44902,56202
44884,56196
44897,56188
44896,56214
44901,56229
44891,56203
44905,56228
44887,56196
44882,56186
44885,56141
44866,56119
44848,56090
44854,56060
44829,56023
44832,55975
44811,55964
44804,55949
44808,55924
44805,55916
44793,55901
44800,55921
44789,55899
44782,55896
44801,55901
44789,55886
44781,55872
44808,55897
44788,55888
44789,55872
44762,55877
44786,55848
44765,55852
44785,55837
44784,55834
44762,55813
44758,55820
44760,55809
44778,55812
44783,55806
44780,55818
44769,55825
44780,55817
44761,55802
44762,55805
44772,55809
44766,55800
44767,55807
44777,55803
44756,55786
44751,55797
44758,55799
44747,55783
44762,55791
44756,55785
44753,55778
44746,55788
44769,55774
44760,55781
44767,55785
44776,55777
44760,55774
44768,55779
44772,55786
44768,55797
44778,55797
44783,55802
44774,55814
44772,55812
44788,55808
44772,55823
44781,55827
44780,55838
44784,55839
44791,55829
44790,55832
44796,55837
44775,55849
44801,55843
44792,55866
44790,55851
44810,55862
44799,55855
44799,55866
44795,55875
44798,55880
44814,55888
44819,55890
44811,55890
44809,55905
44809,55911
44819,55921
44804,55920
44820,55914
44818,55917
44828,55939
44817,55936
44837,55944
44824,55938
44825,55957
44839,55947
44825,55953
44824,55959
44836,55969
44840,55965
44852,55980
44841,56000
44836,55981
44860,55987
44849,56019
44861,56009
44858,56022
44869,56020
44856,56018
44867,56026
44865,56048
44875,56056
44879,56056
44867,56062
44881,56061
44887,56064
44892,56048
44866,56036
44862,56030
44855,55999
44845,55964
44833,55931
44820,55900
44813,55872
44798,55846
44809,55808
44799,55804
44782,55780
44777,55767
44780,55755
44776,55763
44785,55756
44791,55749
44791,55758
44779,55733
44769,55738
44774,55729
44774,55721
44772,55713
44785,55722
44785,55695
44760,55701
44754,55677
44753,55669
44759,55675
44767,55676
44754,55644
44759,55645
44753,55668
44753,55659
44765,55660
44753,55680
44760,55679
44767,55679
44762,55667
44766,55677
44795,55665
44774,55665
44755,55669
44747,55671
44738,55660
44750,55651
44768,55657
44759,55654
44756,55665
44773,55659
44760,55651
44778,55674
44764,55680
44779,55673
44777,55694
44782,55691
44779,55680
44781,55696
44781,55701
44795,55721
44785,55711
44777,55734
44797,55739
44782,55736
44790,55746
44792,55744
44797,55761
44805,55755
44802,55754
44802,55763
44815,55775
44822,55760
44811,55787
44816,55797
44811,55798
44819,55801
44821,55793
44824,55825
44827,55807
44833,55815
44825,55821
44830,55836
44827,55837
44848,55830
44829,55853
44856,55860
44847,55860
44845,55882
44857,55875
44846,55882
44859,55891
44862,55895
44852,55897
44854,55908
44868,55916
44867,55924
44868,55923
44873,55942
44878,55939
44881,55937
44879,55943
44872,55950
44881,55965
44886,55968
44893,55967
44896,55985
44905,55981
44884,55974
44904,55998
44902,56009
44909,56012
44917,56012
44909,56018
44912,56027
44912,56029
44919,56032
44936,56045
44914,56053
44914,56051
44903,56031
44918,56030
44890,55984
44895,55962
44869,55921
44868,55909
44857,55875
44848,55844
44845,55826
44837,55795
44820,55783
44838,55764
44827,55748
44804,55753
44820,55762
44828,55760
44822,55747
44813,55747
44833,55742
44811,55740
44816,55743
44808,55727
44802,55705
44803,55706
44812,55705
44806,55674
44802,55691
44808,55668
44799,55673
44795,55656
44793,55665
44806,55654
44804,55664
44814,55660
44793,55679
44793,55664
44804,55669
44813,55684
44813,55687
44800,55678
44807,55674
44808,55674
44800,55675
44799,55675
44808,55676
44802,55669
44805,55677
44796,55666
44800,55673
44797,55680
44822,55671
44802,55678
44804,55686
44829,55695
44806,55688
44808,55687
44803,55699
44825,55693
44830,55726
44825,55711
44814,55729
44831,55745
44821,55735
44831,55743
44826,55743
44839,55753
44841,55766
44836,55780
44834,55768
44838,55779
44848,55795
44842,55782
44847,55795
44859,55808
44850,55809
44848,55817
44837,55824
44846,55824
44870,55828
44858,55832
44866,55839
44854,55856
44874,55853
44875,55873
44870,55864
44867,55866
44891,55871
44892,55878
44899,55896
44869,55874
44874,55903
44897,55894
44890,55913
44894,55905
44907,55921
44904,55911
44912,55927
44911,55945
44902,55943
44910,55946
44903,55974
44918,55957
44922,55975
44917,55984
44917,55993
44923,56006
44929,56001
44939,56016
44929,56016
44938,56017
44954,56020
44938,56051
44937,56041
44947,56049
44937,56075
44953,56051
44967,56057
44947,56063
44959,56082
44965,56094
44960,56104
44977,56101
44977,56110
44970,56102
44969,56113
44981,56121
44988,56102
44959,56095
44954,56058
44955,56028
44923,56012
44927,55991
44922,55945
44916,55941
44903,55924
44913,55881
44878,55881
44898,55871
44885,55876
44896,55847
44903,55855
44903,55857
44887,55866
44871,55866
44882,55860
44898,55851
44887,55869
44882,55853
44890,55840
44895,55838
44884,55836
44878,55818
44864,55840
44883,55823
44878,55828
44890,55840
44887,55821
44885,55794
44885,55834
44884,55805
44879,55822
44890,55828
44889,55826
44871,55809
44877,55817
44866,55812
44890,55819
44906,55813
44881,55806
44874,55824
44841,55825
44851,55827
44871,55834
44887,55832
44884,55816
44898,55829
44881,55827
44868,55848
44880,55838
44880,55865
44876,55843
44886,55847
44890,55861
44883,55860
44888,55871
44878,55870
44896,55893
44885,55890
44904,55890
44900,55891
44905,55897
44898,55914
44914,55920
44909,55939
44908,55929
44906,55947
44915,55927
44919,55945
44915,55950
44925,55949
44922,55948
44924,55968
44931,55980
44914,55987
44927,55984
44926,55999
44942,56001
44933,56015
44936,56009
44938,56018
44939,56019
44949,56016
44955,56027
44958,56037
44946,56058
44959,56047
44956,56051
44960,56064
44958,56077
44992,56084
44967,56082
44977,56081
44972,56090
44962,56096
44973,56109
44998,56118
44988,56107
44995,56135
44980,56131
44993,56136
44996,56150
45007,56152
44989,56159
44997,56154
45014,56180
45014,56175
45015,56188
44996,56183
45016,56190
45016,56206
45011,56195
45011,56195
45002,56186
45000,56165
45001,56136
44988,56108
44988,56094
44970,56063
44956,56041
44956,56024
44940,56018
44962,55994
44945,55988
44939,55980
44933,55973
44930,55967
44933,55953
44929,55953
44930,55941
44927,55949
44934,55948
44937,55952
44933,55947
44929,55920
44918,55921
44920,55893
44916,55898
44904,55895
44914,55895
44904,55887
44902,55884
44912,55866
44904,55866
44908,55883
44908,55880
44916,55892
44910,55878
44923,55887
44918,55879
44913,55890
44916,55896
44925,55897
44917,55893
44925,55898
44926,55890
44900,55891
44931,55883
44940,55887
44922,55898
44915,55892
44919,55885
44922,55895
44924,55893
44920,55911
44919,55917
44933,55921
44933,55926
44920,55927
44910,55909
44930,55937
44930,55939
44936,55941
44930,55958
44934,55946
44935,55961
44961,55963
44958,55958
44956,55977
44932,55976
44971,55976
44937,55996
44958,55996
44950,55991
44953,56022
44952,56007
44951,56015
44966,56036
44963,56045
44959,56037
44976,56045
44967,56052
44965,56059
44960,56057
44975,56064
44982,56086
44973,56083
44967,56094
44990,56101
44982,56105
44999,56108
44987,56120
45000,56140
44996,56127
44998,56131
45002,56139
45018,56140
45022,56163
44999,56156
45008,56155
45021,56172
45018,56169
45009,56186
45023,56168
45041,56206
45028,56209
45032,56207
45022,56222
45033,56215
45039,56224
45035,56242
45040,56239
45051,56236
45042,56250
45057,56259
45043,56255
45057,56270
45045,56271
45059,56279
45067,56277
45052,56297
45065,56303
45054,56302
45056,56303
45068,56322
45060,56319
45071,56316
45071,56319
45067,56306
45064,56319
45040,56271
45040,56243
45024,56218
45017,56196
45030,56171
45007,56158
45003,56131
45014,56128
44997,56115
45000,56092
44979,56094
44992,56084
44985,56074
44994,56079
44990,56081
44981,56081
44976,56069
44966,56066
44981,56073
44979,56065
44990,56029
44976,56044
44982,56040
44979,56036
44978,56023
44952,56028
44978,55986
44971,56016
44970,56020
44960,56004
44965,56009
44974,56008
44978,56004
44974,56005
44974,56029
44965,56025
44968,55989
44961,55986
44968,55976
44959,55988
44969,55995
44958,55990
44958,55972
44972,55994
44960,55986
44971,56002
44992,55979
45001,55988
44965,55980
44970,56016
44981,56073
44953,56006
44962,56009
44974,56004
44966,56007
44972,56020
44966,56012
44959,56021
44974,56024
44977,56026
44984,56024
44972,56041
44987,56041
44977,56039
44982,56050
44992,56059
44998,56051
44989,56059
44987,56068
44996,56064
44987,56076
45003,56065
44979,56101
45008,56075
44999,56082
44993,56102
45003,56087
45001,56104
44992,56112
45027,56113
45003,56108
45018,56120
45011,56139
45026,56127
45024,56131
45021,56142
45009,56142
45024,56143
45014,56154
45012,56147
45023,56180
45029,56158
45017,56181
45030,56173
45040,56191
45042,56188
45029,56187
45042,56213
45044,56196
45036,56210
45047,56219
45039,56223
45043,56228
45058,56240
45037,56236
45053,56242
45051,56246
45075,56242
45074,56261
45063,56258
45070,56265
45062,56269
45066,56270
45058,56297
45071,56281
45069,56309
45084,56308
45082,56290
45066,56274
45046,56249
45045,56248
45028,56206
45033,56195
45020,56162
45007,56138
44994,56104
44999,56090
44986,56071
44984,56057
45000,56038
44989,56038
44982,56019
44979,56026
44980,56020
44975,56028
44975,56014
44970,56012
44973,56008
44977,55979
44975,55976
44963,55971
44976,55958
44958,55957
44953,55936
44941,55942
44956,55930
44945,55914
44951,55912
44941,55923
44963,55928
44947,55924
44941,55917
44959,55917
44945,55921
44961,55911
44956,55920
44965,55924
44949,55926
44953,55917
44949,55906
44952,55917
44947,55908
44950,55895
44946,55898
44938,55908
44948,55916
44954,55890
44934,55907
44948,55913
44951,55909
44951,55905
44952,55918
44946,55925
44965,55916
44966,55913
44972,55928
44970,55932
44968,55951
44956,55942
44966,55945
44957,55948
44971,55945
44970,55957
44985,55966
44968,55983
44974,55973
44968,55993
44972,55986
44970,55993
44985,56009
44977,55995
44989,56028
44994,56029
44978,56025
44977,56024
45002,56032
44995,56040
45001,56039
44989,56049
44999,56038
45002,56063
45008,56055
44993,56065
45017,56072
45011,56073
45014,56085
44997,56090
45013,56093
45020,56107
45029,56085
45019,56119
45022,56093
45033,56135
45039,56112
45039,56138
45042,56140
45028,56143
45032,56163
45034,56153
45051,56158
45044,56166
45053,56177
45050,56196
45058,56191
45068,56191
45063,56193
45065,56216
45048,56209
45074,56223
45073,56231
45072,56235
45067,56247
45076,56246
45074,56254
45081,56239
45082,56248
45092,56271
45074,56272
45088,56293
45095,56294
45097,56300
45090,56286
45094,56311
45103,56314
45086,56316
45108,56330
45119,56343
45108,56337
45119,56345
45102,56328
45118,56351
45102,56363
45138,56353
45112,56372
45131,56377
45104,56361
45104,56331
45103,56304
45107,56293
45088,56263
45068,56234
45064,56210
45055,56173
45058,56163
45045,56141
45035,56139
45044,56108
45032,56098
45022,56086
45031,56084
45029,56084
45030,56080
45041,56074
45027,56098
45023,56093
45025,56097
45014,56088
45023,56068
45014,56058
45018,56041
45119,56345
45011,56021
45013,56043
45018,56042
45005,56032
45006,55979
45002,55993
45005,56011
44987,56010
45004,56011
45010,56030
45007,56031
45001,56024
44993,56004
45015,56010
45018,55996
45011,56006
44963,55999
44979,55997
45009,55988
44997,55996
45002,56001
45001,55988
44996,55990
45002,55977
44999,55990
45006,56000
45006,55986
45007,55989
45000,56009
45008,56000
45005,56001
44997,56020
45009,56028
45018,56015
45008,56029
45016,56038
45004,56049
45013,56041
45022,56052
45008,56046
45017,56040
45017,56051
45023,56054
45014,56052
45022,56062
45014,56062
45034,56061
45035,56094
45021,56088
45035,56083
45034,56091
45029,56086
45048,56112
45034,56115
45046,56105
45035,56128
45031,56108
45040,56131
45033,56133
45045,56129
45046,56128
45069,56144
45055,56142
45057,56152
45040,56154
45058,56165
45042,56157
45047,56170
45057,56175
45059,56178
45066,56183
45061,56185
45058,56188
45057,56203
45071,56209
45069,56198
45067,56207
45054,56219
45083,56218
45074,56206
45083,56241
45088,56255
45097,56234
45093,56261
45084,56268
45098,56277
45107,56264
45079,56282
45101,56285
45094,56279
45079,56268
45071,56257
45078,56242
45089,56205
45062,56191
45057,56167
45055,56144
45030,56115
45031,56077
45024,56060
45011,56036
45012,56009
45006,56006
45000,56017
45005,56015
45013,56000
44996,55990
45017,55998
44994,55988
45000,55979
44998,55993
44995,55982
45003,55954
44988,55941
44995,55944
44984,55936
44975,55915
44980,55911
44971,55916
44971,55906
44977,55909
44976,55907
44980,55890
44968,55904
44961,55903
44983,55903
44975,55905
44976,55896
44971,55887
44954,55911
44986,55890
44973,55901
44962,55894
44974,55899
44975,55889
44969,55906
44964,55894
44973,55893
44976,55883
44974,55891
44967,55888
44982,55890
44975,55885
44973,55902
44986,55900
44981,55907
44977,55928
44977,55920
44972,55922
44980,55925
44981,55924
44991,55929
44991,55937
44998,55946
44994,55953
44993,55957
45008,55975
44999,55967
44995,55983
45004,55989
45008,55988
44999,55976
45011,55976
45010,56001
45011,55990
45008,55997
45026,56008
45012,56016
45021,56016
45022,56019
45017,56035
45032,56039
45035,56047
45023,56037
45029,56049
45027,56059
45008,56066
45029,56071
45026,56082
45024,56082
45044,56092
45036,56094
45049,56099
45041,56099
45048,56098
45050,56109
45062,56124
45047,56139
45063,56140
45067,56135
45060,56127
45053,56126
45064,56147
45079,56170
45081,56162
45071,56177
45084,56172
45083,56173
45057,56184
45083,56189
45069,56195
45093,56214
45079,56196
45093,56214
45083,56233
45098,56229
45080,56236
45104,56256
45113,56220
45095,56241
45103,56248
45104,56248
45101,56260
45096,56264
45114,56274
45108,56293
45121,56279
45120,56277
45116,56281
45113,56309
45116,56307
45114,56311
45129,56283
45102,56272
45086,56255
45085,56201
45093,56158
45072,56134
45070,56112
45050,56077
45040,56072
45046,56043
45027,56016
45018,56003
45016,55995
45015,55978
45024,55986
45023,55975
45014,55980
45048,55974
44999,55965
45031,55952
44993,55943
44992,55922
44994,55942
44992,55927
44989,55878
44983,55857
44977,55880
44977,55847
44979,55850
44977,55854
44988,55869
44985,55864
44961,55879
44973,55866
44978,55859
44998,55867
44967,55870
44984,55856
44944,55860
44957,55877
44966,55852
44967,55852
44966,55842
44969,55841
44961,55840
44958,55839
44958,55847
44957,55847
44968,55853
44961,55852
44977,55845
44978,55854
44958,55869
44967,55874
44982,55849
44981,55871
44974,55867
44971,55882
44974,55887
44969,55886
44972,55901
44989,55897
44990,55894
44994,55895
45000,55896
44985,55915
44993,55931
44998,55925
44992,55952
44982,55944
44995,55948
45002,55933
45000,55964
45009,55960
44999,55964
44978,55961
45005,55967
45009,55960
44999,55971
45022,55969
45022,55994
45023,55997
45014,56003
45036,56014
45018,56003
45019,56018
45025,56027
45018,56002
45022,56031
45031,56046
45021,56033
45036,56060
45045,56064
45040,56062
45036,56067
45034,56064
45045,56086
45051,56082
45043,56092
45045,56089
45052,56100
45054,56097
45062,56086
45066,56104
45051,56116
45057,56120
45058,56137
45066,56134
45070,56148
45061,56161
45071,56149
45097,56164
45074,56150
45075,56158
45079,56172
45071,56178
45082,56184
45076,56184
45096,56189
45112,56206
45102,56199
45093,56223
45102,56219
45091,56209
45103,56217
45099,56208
45096,56175
45071,56154
45055,56139
45049,56090
45048,56063
45038,56039
45032,56005
45013,55976
45006,55953
45004,55926
45010,55940
44983,55906
45010,55899
44995,55899
45000,55878
44982,55901
44991,55873
44981,55897
44986,55873
44981,55876
44982,55861
44982,55853
44979,55843
44973,55831
44972,55820
44967,55810
44971,55815
44962,55810
44965,55812
44958,55794
44950,55797
44950,55793
44956,55800
44964,55808
44972,55802
44959,55817
44967,55796
44959,55800
44950,55783
44965,55794
44957,55782
44941,55779
44945,55781
44949,55766
44940,55765
44936,55780
44949,55771
44936,55772
44944,55772
44935,55778
44953,55778
44947,55789
44950,55781
44954,55782
44961,55799
44954,55815
44961,55805
44960,55792
44950,55808
44970,55807
44969,55807
44977,55808
44960,55817
44961,55827
44976,55836
44977,55845
44987,55842
44985,55840
44978,55837
44980,55850
44972,55847
44976,55857
44979,55875
44982,55874
44982,55868
45009,55868
44997,55872
44987,55890
44993,55891
44991,55898
44994,55913
44995,55906
45002,55920
45021,55913
45004,55923
45002,55929
45019,55927
45007,55940
45007,55944
45015,55951
45006,55951
45025,55948
45011,55968
45016,55980
45015,55970
45027,55975
45025,55983
45033,55987
45035,56001
45038,55997
45035,56005
45035,56004
45039,56014
45029,56034
45036,56035
45050,56048
45053,56044
45058,56057
45050,56061
45052,56072
45051,56059
45064,56071
45065,56084
45065,56090
45049,56090
45061,56112
45068,56095
45096,56112
45070,56114
45071,56125
45072,56129
45083,56156
45069,56119
45069,56126
45063,56107
45050,56048
45049,55987
45037,55641
45023,55958
45013,55929
45010,55883
44989,55857
44974,55852
44985,55825
44965,55808
44982,55805
44985,55793
44963,55787
44969,55757
44957,55778
44964,55777
44951,55766
44948,55705
44956,55686
44938,55691
44934,55691
44932,55692
44911,55681
44932,55675
44911,55651
44924,55648
44968,55648
44927,55637
44942,55634
44904,55656
44916,55640
44915,55640
44900,55651
44919,55641
44916,55651
44928,55641
44923,55649
44920,55651
44914,55641
44910,55645
44915,55630
44903,55639
44917,55624
44921,55643
44904,55626
44930,55635
44922,55632
44912,55638
44913,55641
44922,55637
44934,55664
44922,55648
44928,55663
44925,55660
44915,55654
44920,55668
44941,55675
44936,55684
44921,55684
44957,55689
44936,55688
44940,55708
44936,55700
44947,55711
44943,55711
44953,55701
44949,55716
44949,55704
44949,55733
44957,55739
44955,55742
44957,55733
44955,55760
44972,55761
44972,55763
44975,55774
44970,55784
44976,55764
44967,55775
44991,55802
44974,55801
44974,55807
44983,55805
44994,55821
44980,55814
44971,55814
44994,55831
44987,55854
44987,55838
45001,55852
44994,55853
45002,55889
44997,55873
45017,55872
45014,55883
45005,55892
45020,55907
44998,55908
45026,55905
45027,55918
45029,55925
45031,55925
45037,55946
45022,55975
45028,55952
45048,55960
45032,55967
45042,55971
45042,55965
45044,55999
45056,55993
45049,56016
45063,56008
45071,56030
45057,56027
45061,56051
45056,56038
45076,56048
45056,56053
45072,56067
45086,56071
45077,56079
45079,56065
45081,56094
45092,56077
45085,56105
45076,56091
45111,56110
45092,56118
45111,56126
45097,56135
45105,56120
45095,56143
45116,56164
45084,56150
45096,56133
45084,56094
45079,56088
45082,56053
45052,56004
45048,55986
45052,55945
45011,55907
45007,55878
44996,55857
44994,55820
44982,55802
44996,55810
44982,55789
44990,55792
44986,55782
44981,55788
44981,55755
44962,55782
44985,55765
44979,55771
44973,55751
44946,55742
44968,55727
44956,55717
44957,55694
44956,55703
44939,55679
44947,55675
44947,55677
44931,55675
44957,55679
44947,55683
44940,55678
44946,55674
44943,55673
44946,55684
44950,55679
44955,55658
44946,55660
44946,55671
44926,55674
44947,55684
44927,55674
44937,55657
44930,55639
44935,55649
44933,55660
44952,55652
44928,55640
44927,55656
44949,55667
44917,55665
44929,55657
44958,55675
44946,55678
44940,55668
44919,55664
44951,55689
44950,55683
44945,55703
44954,55711
44953,55700
44946,55723
44942,55713
44955,55716
44960,55717
44959,55729
44951,55736
44958,55730
44954,55733
44951,55750
44946,55739
44978,55747
44981,55739
44965,55785
44973,55763
44962,55772
44982,55777
44981,55784
44984,55790
44986,55786
44990,55793
44981,55803
44992,55801
44983,55804
45001,55817
44983,55829
45002,55840
44998,55831
45000,55846
45019,55852
44998,55849
45005,55863
45009,55857
45011,55861
45001,55860
45011,55876
45016,55893
45013,55896
45019,55893
45017,55903
45031,55892
45032,55919
45036,55918
45028,55923
45031,55932
45024,55943
45037,55951
45036,55944
45044,55963
45042,55952
45037,55971
45038,55969
45052,55982
45034,56000
45059,56003
45047,55997
45057,55991
45049,55995
45054,55986
45041,55961
45028,55941
45013,55896
45012,55887
45000,55866
44983,55760
44964,55713
44964,55687
44947,55677
44943,55673
44938,55671
44935,55653
44943,55665
44941,55643
44937,55633
44969,55635
44938,55624
44941,55614
44914,55619
44922,55614
44908,55605
44911,55573
44912,55567
44922,55573
44898,55548
44896,55551
44899,55536
44888,55541
44894,55551
44901,55554
44897,55549
44887,55530
44896,55563
44905,55544
44905,55545
44896,55547
44914,55550
44906,55549
44896,55532
44903,55541
44896,55556
44898,55549
44900,55540
44901,55537
44892,55525
44892,55542
44898,55552
44905,55557
44921,55533
44907,55560
44899,55563
44891,55567
44910,55569
44916,55566
44914,55558
44918,55578
44909,55580
44925,55588
44937,55592
44922,55623
44920,55600
44916,55615
44933,55611
44927,55616
44918,55636
44923,55632
44941,55635
44949,55655
44947,55650
44947,55668
44945,55666
44942,55668
44952,55685
44957,55682
44953,55686
44955,55693
44969,55698
44958,55704
44975,55704
44963,55726
44965,55720
44976,55731
44986,55731
44973,55735
44958,55763
44995,55760
44978,55770
44979,55775
44990,55786
44976,55789
44980,55778
44994,55812
44992,55807
44986,55797
44997,55838
44987,55818
45016,55830
45013,55832
45009,55836
45017,55846
45017,55855
45002,55862
45013,55858
45020,55876
45020,55873
45007,55880
45014,55904
45044,55894
45019,55905
45026,55903
45041,55912
45034,55921
45041,55942
45029,55945
45036,55949
45046,55951
45047,55958
45055,55960
45056,55958
45045,55965
45050,55996
45054,55979
45048,56006
45048,55982
45036,55974
45032,55933
45010,55884
45009,55855
44998,55819
44982,55780
44959,55731
44955,55726
44937,55698
44947,55653
44934,55648
44931,55631
44941,55625
44934,55636
44932,55611
44912,55608
44929,55606
44922,55580
44924,55591
44932,55570
44899,55561
44904,55559
44902,55536
44893,55525
44897,55512
44898,55510
44890,55496
44890,55476
44876,55485
44876,55482
44889,55475
44894,55472
44890,55491
44869,55486
44879,55486
44886,55498
44880,55505
44887,55507
44872,55489
44887,55510
44878,55500
44889,55493
44877,55497
44888,55488
44893,55497
44884,55497
44887,55477
44883,55496
44891,55496
44886,55490
44884,55510
44898,55512
44889,55518
44882,55526
44892,55510
44898,55532
44896,55527
44899,55517
44918,55536
44902,55554
44906,55543
44923,55560
44903,55569
44907,55562
44923,55584
44917,55581
44919,55576
44928,55597
44939,55595
44921,55607
44927,55606
44930,55611
44931,55624
44940,55626
44922,55632
44940,55639
44953,55631
44956,55650
44938,55652
44954,55670
44956,55665
44958,55675
44956,55672
44964,55687
44956,55690
44961,55702
44949,55709
44979,55704
44969,55719
44972,55726
44969,55741
44966,55746
44971,55740
44975,55752
44986,55754
44999,55763
44998,55764
44988,55771
44996,55771
45002,55796
44995,55791
44984,55796
45001,55803
45000,55819
45010,55821
45005,55823
44995,55840
45008,55840
45012,55846
45018,55850
45012,55874
45034,55847
45030,55880
45030,55892
45026,55877
45026,55885
45032,55916
45038,55897
45036,55900
45044,55902
45045,55928
45047,55912
45046,55937
45041,55945
45049,55948
45045,55952
45053,55997
45040,55961
45045,55932
45039,55913
45011,55910
45022,55866
45012,55819
44981,55796
44976,55759
44975,55735
44952,55714
44964,55678
44966,55660
44956,55626
44947,55624
44903,55614
44930,55603
44925,55607
44924,55590
44919,55612
44924,55574
44924,55571
44922,55569
44919,55582
44915,55571
44916,55536
44910,55531
44888,55523
44911,55515
44916,55492
44895,55493
44894,55502
44897,55502
44887,55492
44890,55505
44880,55514
44899,55480
44889,55497
44904,55502
44883,55516
44890,55507
44888,55498
44886,55511
44900,55491
44885,55507
44892,55486
44888,55492
44895,55484
44890,55510
44892,55485
44894,55487
44891,55493
44882,55511
44900,55505
44887,55502
44902,55504
44914,55524
44916,55512
44919,55535
44911,55523
44897,55547
44915,55548
44928,55538
44910,55544
44897,55555
44925,55556
44911,55564
44916,55568
44924,55574
44926,55583
44935,55604
44934,55597
44930,55594
44932,55603
44942,55606
44936,55629
44944,55610
44937,55639
44951,55627
44958,55640
44950,55649
44947,55647
44948,55659
44956,55668
44951,55672
44964,55681
44962,55695
44972,55672
44976,55688
44964,55690
44967,55731
44979,55709
44981,55718
44976,55716
44991,55724
44968,55734
44991,55745
44984,55757
44993,55756
44995,55777
44996,55764
44996,55774
44991,55785
44994,55798
44994,55789
45000,55804
45010,55817
45012,55812
45010,55817
45001,55833
45012,55839
45018,55851
45019,55856
45019,55858
45022,55847
45021,55857
45032,55876
45033,55882
45032,55891
45045,55896
45040,55891
45039,55892
45037,55906
45048,55921
45035,55917
45054,55936
45052,55937
45059,55951
45060,55935
45056,55950
45062,55948
45063,55974
45062,55952
45069,55947
45043,55917
45023,55893
45012,55843
45004,55810
44982,55766
44973,55734
44960,55700
44956,55684
44952,55654
44943,55632
44938,55623
44935,55601
44917,55597
44942,55594
44923,55572
44938,55560
44922,55570
44921,55571
44912,55554
44904,55552
44914,55526
44891,55506
44893,55493
44895,55482
44887,55469
44896,55462
44880,55453
44884,55442
44874,55432
44867,55427
44871,55433
44881,55441
44868,55437
44875,55443
44876,55454
44876,55452
44882,55441
44882,55431
44868,55449
44888,55450
44864,55450
44874,55445
44886,55448
44893,55444
44896,55436
44891,55436
44880,55441
44870,55460
44884,55434
44888,55452
44892,55456
44890,55436
44894,55450
44897,55460
44892,55471
44916,55460
44881,55471
44900,55480
44901,55483
44905,55495
44910,55486
44929,55507
44927,55493
44925,55510
44906,55516
44931,55542
44929,55540
44925,55536
44927,55543
44938,55557
44929,55553
44924,55592
44928,55567
44949,55577
44930,55588
44954,55591
44944,55598
44958,55604
44938,55610
44939,55608
44951,55621
44964,55631
44951,55637
44974,55647
44979,55655
44973,55654
44979,55681
44983,55682
44965,55688
44989,55709
44996,55677
44994,55718
44985,55726
44997,55726
44995,55722
44990,55739
44999,55728
45007,55744
45000,55766
45011,55763
45004,55775
45016,55777
45018,55786
45021,55778
45021,55793
45023,55803
45020,55811
45019,55835
45025,55832
45027,55831
45037,55864
45043,55863
45039,55846
45031,55859
45042,55848
45043,55895
45046,55903
45043,55919
45059,55910
45062,55930
45057,55929
45080,55930
45095,55935
45093,55953
45084,55957
45075,55978
45053,55964
45063,55978
45076,55987
45090,55979
45089,56005
45085,56005
45083,56013
45093,56027
45085,56017
45095,56045
45079,56026
45096,55985
45066,55973
45061,55938
45045,55896
45030,55860
45022,55830
45018,55810
44999,55778
44994,55754
44985,55738
44976,55703
44985,55699
44981,55703
44991,55702
44969,55687
44977,55690
44966,55681
44967,55676
44983,55660
44976,55664
44971,55661
44966,55647
44953,55644
44951,55612
44949,55616
44948,55606
44974,55592
44954,55594
44928,55587
44936,55589
44943,55589
44943,55585
44963,55583
44949,55588
44964,55602
44937,55590
44953,55601
44937,55602
44934,55593
44952,55607
44947,55596
44952,55591
44947,55582
44944,55578
44935,55570
44947,55575
44947,55574
44948,55597
44926,55597
44949,55589
44956,55594
44940,55594
44935,55609
44946,55613
44954,55615
44951,55620
44965,55616
44959,55613
44962,55639
44954,55635
44970,55654
44977,55647
44966,55651
44969,55665
44975,55660
44976,55680
44973,55692
44978,55669
44978,55678
44988,55700
44988,55711
44983,55705
44984,55715
44994,55714
45001,55710
44998,55719
45008,55741
45002,55746
45013,55742
45008,55749
45016,55759
45018,55775
45020,55760
45014,55766
45023,55794
45017,55795
45023,55803
45030,55814
45021,55823
45027,55808
45030,55823
45033,55834
45048,55826
45039,55850
45044,55840
45043,55863
45042,55850
45047,55867
45037,55880
45048,55884
45041,55882
45052,55907
45055,55899
45067,55909
45063,55911
45063,55922
45070,55922
45065,55913
45076,55956
45076,55932
45068,55960
45078,55966
45074,55949
45075,55971
45094,55984
45086,55988
45087,55982
45097,55992
45104,56005
45097,56015
45097,55995
45102,56023
45104,56034
45103,56034
45101,56039
45122,56015
45091,56009
45081,55956
45086,55928
45052,55905
45048,55878
45045,55837
45031,55827
45019,55788
45012,55753
45010,55749
45020,55726
45017,55713
45006,55718
45012,55703
44986,55695
45005,55694
45008,55685
44991,55672
44982,55681
44973,55644
44982,55639
44976,55637
44967,55630
44965,55621
44965,55592
44951,55590
44956,55591
44955,55574
44953,55560
44951,55569
44942,55557
44961,55569
44952,55566
44960,55593
44946,55594
44944,55576
44966,55585
44968,55609
44963,55590
44953,55592
44963,55588
44961,55593
44964,55589
44955,55584
44968,55597
44981,55589
44963,55597
44953,55590
44959,55602
44972,55598
44969,55600
44977,55604
44976,55604
44984,55613
44972,55610
44986,55625
44977,55615
44975,55638
44989,55647
44967,55651
44983,55638
45007,55665
44989,55668
44999,55663
45014,55689
45018,55681
45010,55682
44996,55694
45008,55699
45006,55688
45001,55719
45013,55718
45011,55721
45016,55755
45018,55745
45013,55752
45027,55752
45018,55763
45026,55735
45026,55783
45028,55778
45020,55786
45036,55791
45031,55786
45051,55807
45045,55835
45055,55829
45063,55813
45042,55829
45044,55838
45061,55840
45057,55876
45068,55869
45058,55884
45058,55863
45061,55861
45067,55878
45073,55903
45079,55907
45085,55908
45091,55930
45100,55932
45070,55938
45098,55930
45120,55955
45091,55946
45080,55953
45089,55966
45066,55975
45092,55987
45109,55985
45112,55997
45107,55998
45113,56007
45105,56028
45115,56017
45118,56030
45139,56035
45124,56059
45127,56052
45117,56058
45140,56064
45125,56076
45142,56090
45152,56089
45151,56104
45145,56106
45155,56093
45160,56126
45155,56121
45143,56141
45153,56136
45164,56146
45162,56149
45158,56159
45174,56153
45159,56163
45166,56173
45176,56143
45154,56116
45130,56089
45124,56046
45114,56023
45106,55975
45102,55951
45097,55919
45071,55906
45076,55870
45066,55851
45066,55853
45076,55825
45056,55814
45060,55817
45056,55819
45046,55812
45050,55816
45052,55811
45035,55793
45036,55767
45039,55771
45021,55759
45037,55747
45023,55746
45008,55736
45029,55721
45018,55706
45005,55710
45003,55697
45005,55694
45000,55709
45011,55696
45022,55707
45013,55697
45017,55711
45022,55717
45021,55716
45012,55692
45008,55715
45017,55723
45007,55701
45013,55705
45007,55712
45001,55700
45001,55689
45009,55695
45017,55698
45010,55702
45009,55690
45010,55697
45008,55694
45007,55690
45016,55700
45006,55712
45013,55721
45015,55723
45029,55722
45015,55719
45027,55732
45024,55742
45033,55759
45028,55729
45047,55766
45040,55760
45048,55765
45033,55789
45056,55777
45032,55782
45060,55787
45041,55791
45040,55798
45039,55802
45046,55815
45052,55825
45052,55816
45051,55825
45060,55831
45059,55826
45063,55837
45057,55847
45073,55852
45051,55861
45072,55845
45065,55872
45067,55865
45086,55860
45077,55895
45077,55881
45088,55906
45091,55904
45090,55900
45079,55904
45089,55897
45080,55931
45089,55927
45090,55917
45099,55940
45103,55947
45113,55944
45111,55949
45096,55965
45101,55961
45099,55967
45110,55972
45108,55984
45121,55989
45115,56001
45119,56001
45128,56003
45134,56019
45135,56032
45134,56016
45119,56025
45126,56039
45139,56027
45146,56056
45142,56055
45146,56064
45161,56071
45148,56048
45124,56084
45159,56090
45153,56098
45161,56113
45144,56099
45161,56108
45152,56117
45165,56126
45160,56120
45175,56119
45163,56107
45147,56074
45134,56053
45129,56005
45090,55985
45095,55931
45088,55911
45072,55863
45063,55836
45059,55806
45054,55797
45055,55781
45055,55767
45037,55774
45036,55745
45042,55754
45045,55753
45030,55736
45038,55724
45022,55727
45015,55713
45034,55714
45035,55696
45021,55674
45021,55671
45018,55666
45006,55637
44984,55642
44999,55616
45002,55636
45000,55625
45003,55649
45023,55632
45003,55623
45003,55618
45008,55634
44986,55630
44994,55630
45018,55625
44994,55631
45000,55623
44998,55634
45008,55630
44993,55607
45001,55622
44982,55632
44991,55627
45008,55629
45002,55621
45008,55633
45000,55628
45009,55628
44997,55639
45007,55643
45025,55612
45006,55649
44999,55639
45006,55675
45020,55666
45002,55668
45018,55682
45031,55678
45022,55676
45014,55692
45009,55700
45017,55704
45017,55702
45043,55727
45032,55743
45040,55708
45029,55710
45044,55704
45053,55732
45035,55750
45034,55763
45051,55764
45045,55752
45056,55778
45044,55766
45073,55774
45084,55794
45060,55796
45052,55792
45073,55812
45058,55810
45066,55823
45062,55823
45060,55828
45066,55851
45086,55854
45090,55842
45077,55850
45082,55865
45080,55869
45088,55869
45093,55886
45095,55900
45106,55893
45092,55906
45091,55910
45094,55898
45100,55908
45112,55913
45113,55923
45100,55947
45110,55949
45116,55929
45114,55943
45119,55971
45114,55975
45114,55970
45118,55988
45116,55992
45143,55995
45122,55995
45132,56011
45131,56012
45140,56019
45137,56020
45144,56028
45143,56043
45142,56049
45153,56037
45147,56050
45146,56052
45160,56077
45169,56067
45156,56081
45162,56091
45154,56068
45157,56057
45153,56017
45122,55991
45124,55960
45101,55917
45086,55872
45080,55828
45054,55804
45058,55772
45052,55734
45050,55735
45028,55703
45042,55702
45038,55694
45037,55695
45038,55690
45034,55668
45033,55672
45026,55659
45008,55647
45023,55624
45009,55627
45016,55628
44994,55586
44983,55582
44987,55564
44985,55557
44967,55560
44970,55538
44986,55536
44984,55539
44988,55530
44970,55528
44980,55553
44989,55535
44996,55544
45006,55550
44994,55548
44983,55552
44984,55561
45003,55549
44988,55563
44991,55562
44988,55557
44983,55543
45001,55557
44991,55550
44984,55537
44984,55555
44991,55552
44992,55551
44973,55555
45000,55554
45003,55564
44988,55579
44985,55575
44987,55591
44999,55598
45001,55592
44975,55594
45008,55598
45001,55615
45014,55614
45014,55623
45020,55622
45012,55624
45016,55628
45013,55632
45033,55644
45035,55649
45032,55647
45035,55655
45037,55654
45040,55682
45037,55675
45041,55684
45031,55690
45045,55699
45043,55694
45037,55708
45054,55718
45047,55719
45060,55720
45064,55736
45052,55739
45058,55738
45049,55749
45080,55754
45058,55756
45064,55770
45065,55772
45063,55777
45053,55785
45074,55788
45072,55801
45066,55810
45082,55813
45063,55828
45084,55822
45069,55845
45090,55857
45076,55839
45105,55842
45099,55852
45087,55870
45103,55858
45087,55870
45124,55876
45114,55887
45100,55897
45105,55906
45104,55898
45117,55915
45108,55912
45112,55921
45111,55922
45115,55930
45117,55935
45147,55953
45128,55953
45138,55963
45138,55986
45144,55969
45133,55996
45144,56006
45136,55999
45131,55990
45129,55958
45109,55940
45117,55900
45091,55852
45084,55815
45074,55799
45069,55751
45055,55722
45039,55710
45035,55688
45045,55664
45024,55675
45028,55660
45033,55667
45015,55664
45022,55665
45030,55644
45015,55653
45022,55632
45016,55621
45017,55633
45020,55626
45012,55609
44999,55604
45024,55587
44998,55599
45006,55585
44994,55592
44997,55571
45008,55585
45010,55588
45007,55588
45001,55580
45010,55586
45008,55605
44996,55596
45002,55598
45009,55628
44995,55608
45008,55605
45002,55606
44992,55602
45003,55592
45003,55612
45008,55599
45001,55605
45000,55613
44988,55613
45007,55617
45005,55613
45019,55637
45022,55636
44997,55644
45008,55646
45018,55672
45030,55679
45013,55701
45014,55666
45037,55657
45027,55679
45033,55702
45020,55709
45050,55728
45035,55718
45037,55734
45036,55733
45035,55738
45071,55764
45058,55760
45048,55764
45004,55784
45057,55779
45050,55784
45054,55793
45062,55810
45063,55802
45077,55827
45075,55830
45067,55838
45076,55844
45066,55866
45086,55861
45077,55859
45065,55861
45102,55885
45091,55881
45098,55912
45095,55909
45103,55929
45111,55911
45099,55932
45106,55930
45117,55952
45098,55925
45089,55928
45079,55916
45083,55891
45069,55853
45052,55836
45060,55817
45033,55797
45039,55796
45045,55772
45056,55761
45044,55762
45043,55768
45044,55766
45042,55756
45051,55760
45044,55761
45044,55775
45047,55761
45052,55758
45040,55759
45032,55767
45034,55761
45032,55745
45042,55742
45023,55729
45010,55737
45014,55739
45024,55741
45018,55730
45023,55737
45024,55734
45036,55756
45017,55758
45030,55777
45034,55773
45046,55785
45031,55773
45045,55803
45029,55777
45039,55794
45031,55798
45035,55820
45040,55794
45030,55810
45034,55807
45046,55826
45041,55833
45049,55836
45057,55841
45058,55831
45060,55845
45048,55858
45036,55858
45066,55851
45061,55876
45054,55890
45073,55888
45062,55903
45062,55897
45076,55913
45065,55912
45077,55914
45094,55940
45079,55949
45094,55961
45078,55948
45088,55972
45095,55970
45095,55966
45090,55986
45093,55997
45082,55988
45099,56010
45101,56023
45111,56035
45102,56044
45112,56052
45117,56056
45120,56047
45118,56065
45117,56078
45114,56090
45130,56090
45118,56081
45147,56100
45139,56112
45139,56133
45138,56133
45141,56137
45141,56160
45138,56166
45138,56164
45149,56173
45140,56176
45144,56178
45161,56204
45164,56212
45159,56213
45175,56230
45171,56236
45184,56246
45159,56240
45179,56255
45177,56274
45164,56271
45180,56273
45180,56283
45182,56284
45168,56311
45182,56316
45193,56330
45200,56330
45201,56336
45174,56335
45200,56351
45205,56366
45204,56363
45220,56367
45209,56368
45205,56401
45212,56392
45216,56412
45220,56416
45222,56421
45223,56423
45210,56427
45229,56430
45224,56451
45232,56454
45223,56453
45236,56468
45246,56479
45231,56486
45245,56500
45244,56492
45241,56485
45217,56459
45224,56448
45220,56434
45217,56396
45196,56392
45204,56382
45218,56389
45192,56375
45191,56379
45193,56409
45213,56413
45208,56424
45223,56426
45229,56437
45218,56444
45225,56447
45233,56446
45226,56467
45225,56468
45237,56461
45226,56444
45220,56465
45229,56462
45227,56459
45207,56459
45223,56475
45217,56465
45237,56480
45246,56479
45228,56500
45238,56506
45243,56498
45247,56503
45246,56520
45233,56526
45258,56528
45256,56526
45237,56536
45234,56534
45253,56533
45257,56533
45227,56536
45240,56549
45250,56547
45256,56555
45238,56558
45253,56557
45249,56559
45248,56563
45241,56580
45244,56584
45267,56577
45264,56613
45266,56611
45262,56588
45264,56597
45259,56607
45263,56607
45275,56619
45276,56636
45266,56635
45274,56638
45271,56645
45261,56652
45273,56656
45279,56651
45282,56660
45267,56661
45276,56665
45288,56684
45289,56695
45285,56711
45285,56666
45287,56662
45288,56691
45299,56701
45277,56702
45291,56717
45289,56721
45295,56725
45282,56735
45304,56735
45328,56745
45328,56736
45287,56751
45278,56767
45298,56759
45272,56766
45311,56783
45306,56776
45302,56788
45325,56787
45316,56783
45300,56786
45316,56797
45319,56807
45302,56806
45318,56798
45317,56812
45323,56829
45322,56831
45327,56843
45329,56837
45314,56835
45331,56857
45326,56857
45324,56867
45335,56865
45332,56869
45342,56871
45334,56886
45350,56873
45351,56891
45345,56889
45345,56885
45327,56889
45323,56872
45322,56837
45309,56841
45314,56838
45312,56816
45303,56810
45306,56809
45299,56807
45317,56813
45312,56815
45316,56839
45322,56853
45324,56829
45321,56867
45317,56868
45339,56866
45323,56864
45331,56860
45333,56872
45326,56857
45319,56851
45322,56868
45318,56853
45308,56853
45338,56856
45321,56871
45325,56859
45328,56876
45326,56868
45347,56893
45320,56897
45330,56889
45336,56895
45341,56914
45340,56913
45336,56911
45353,56927
45334,56924
45334,56932
45332,56927
45332,56917
45326,56912
45345,56916
45342,56914
45350,56942
45349,56934
45354,56929
45350,56949
45334,56944
45345,56955
45340,56961
45332,56963
45352,56959
45345,56968
45362,56979
45340,56967
45356,56986
45352,56984
45368,56977
45353,56990
45348,57003
45372,57000
45358,57007
45355,56992
45368,57026
45360,56992
45354,57008
45345,57020
45367,57021
45375,57015
45364,57033
45356,57024
45360,57034
45378,57036
45363,57046
45363,57056
45371,57039
45372,57051
45370,57075
45372,57055
45379,57069
45376,57068
45368,57066
45381,57074
45385,57089
45370,57085
45375,57102
45383,57109
45381,57092
45400,57106
45385,57122
45385,57126
45394,57118
45401,57140
45395,57135
45383,57125
45397,57134
45389,57149
45397,57151
45411,57151
45401,57162
45395,57162
45400,57165
45398,57162
45406,57182
45393,57186
45417,57179
45420,57193
45422,57190
45396,57173
45401,57202
45418,57207
45417,57205
45408,57204
45419,57213
45414,57195
45413,57218
45413,57209
45423,57231
45422,57242
45424,57230
45419,57238
45422,57219
45390,57220
45404,57205
45418,57196
45399,57179
45395,57166
45394,57160
45392,57146
45401,57145
45393,57147
45411,57139
45389,57154
45397,57161
45390,57169
45388,57178
45403,57189
45408,57192
45399,57186
45394,57191
45418,57199
45404,57199
45422,57191
45405,57193
45406,57198
45391,57199
45402,57173
45403,57184
45406,57176
45396,57199
45407,57205
45412,57195
45408,57214
45416,57236
45416,57230
45416,57223
45420,57226
45428,57226
45416,57239
45404,57230
45410,57242
45411,57238
45409,57236
45409,57236
45421,57232
45417,57227
45415,57241
45402,57226
45413,57238
45414,57236
45408,57247
45417,57252
45414,57239
45412,57254
45416,57260
45423,57267
45427,57265
45412,57265
45423,57271
45442,57278
45423,57307
45420,57268
45431,57285
45417,57286
45425,57299
45429,57255
45438,57297
45418,57304
45420,57319
45418,57299
45430,57300
45425,57304
45435,57300
45439,57303
45437,57299
45412,57318
45424,57309
45428,57323
45437,57329
45427,57358
45429,57319
45420,57312
45433,57329
45439,57334
45458,57352
45437,57343
45436,57341
45434,57361
45429,57360
45444,57354
45458,57352
45471,57363
45426,57368
45411,57366
45435,57362
45435,57389
45438,57381
45445,57378
45459,57377
45421,57394
45437,57378
45449,57405
45440,57387
45444,57413
45438,57392
45434,57409
45454,57411
45449,57401
45440,57402
45456,57422
45462,57408
45440,57412
45453,57411
45450,57430
45450,57422
45465,57432
45453,57432
45457,57441
45454,57448
45445,57461
45465,57442
45456,57438
45453,57418
45458,57414
45436,57388
45446,57387
45438,57369
45417,57341
45421,57349
45437,57341
45423,57342
45417,57346
45421,57336
45427,57344
45425,57358
45434,57355
45431,57364
45441,57376
45434,57379
45429,57362
45418,57373
45433,57361
45417,57346
45424,57345
45411,57346
45416,57354
45416,57347
45411,57340
45416,57339
45419,57340
45414,57338
45419,57338
45422,57354
45413,57369
45424,57351
45418,57353
45417,57354
45400,57370
45409,57354
45414,57341
45406,57354
45415,57363
45430,57348
45407,57341
45402,57353
45406,57336
45411,57356
45405,57335
45406,57343
45405,57355
45404,57352
45413,57349
45388,57352
45392,57350
45390,57366
45404,57362
45415,57358
45393,57367
45391,57354
45396,57367
45397,57371
45388,57352
45396,57372
45394,57370
45396,57379
45396,57368
45405,57362
45389,57367
45403,57392
45391,57388
45396,57369
45398,57384
45387,57390
45392,57386
45391,57380
45408,57379
45401,57370
45385,57400
45401,57393
45400,57392
45386,57392
45381,57391
45377,57390
45389,57404
45391,57398
45398,57397
45391,57392
45399,57412
45386,57411
45400,57405
45387,57401
45394,57416
45397,57414
45393,57411
45401,57427
45390,57418
45392,57417
45397,57421
45384,57430
45389,57425
45380,57432
45402,57431
45381,57435
45387,57433
45387,57443
45396,57431
45384,57433
45406,57437
45403,57443
45385,57449
45390,57445
45395,57453
45400,57450
45393,57454
45383,57477
45396,57462
45396,57459
45399,57469
45388,57463
45414,57475
45396,57458
45394,57459
45397,57472
45405,57479
45383,57489
45409,57484
45394,57474
45389,57491
45397,57493
45387,57502
45388,57514
45389,57492
45399,57487
45401,57497
45395,57503
45406,57501
45413,57514
45411,57513
45398,57520
45399,57508
45395,57495
45402,57471
45374,57452
45386,57435
45363,57397
45338,57407
45360,57381
45346,57384
45354,57368
45351,57370
45346,57361
45362,57365
45353,57367
45355,57384
45346,57366
45365,57377
45349,57384
45362,57372
45342,57385
45345,57386
45355,57383
45344,57373
45335,57372
45327,57353
45327,57348
45335,57341
45329,57352
45321,57334
45316,57325
45324,57322
45337,57333
45336,57333
45331,57335
45318,57337
45320,57335
45318,57342
45324,57326
45325,57337
45319,57327
45322,57337
45318,57336
45315,57322
45305,57309
45306,57314
45302,57328
45309,57306
45298,57319
45299,57307
45294,57304
45313,57314
45313,57286
45294,57316
45301,57319
45293,57303
45290,57316
45303,57333
45296,57318
45315,57306
45302,57319
45302,57301
45309,57304
45307,57314
45292,57330
45299,57315
45292,57320
45301,57338
45279,57321
45293,57291
45292,57281
45284,57324
45293,57339
45295,57326
45294,57315
45295,57328
45293,57326
45308,57333
45317,57332
45306,57319
45285,57314
45289,57326
45257,57315
45280,57315
45289,57322
45280,57316
45279,57339
45295,57333
45285,57336
45283,57339
45289,57345
45289,57330
45285,57346
45298,57341
45293,57354
45273,57352
45282,57332
45296,57346
45291,57337
45301,57356
45282,57358
45299,57359
45282,57345
45294,57355
45281,57357
45282,57360
45282,57362
45291,57350
45290,57371
45299,57365
45291,57364
45291,57370
45282,57373
45291,57385
45292,57380
45296,57367
45289,57381
45303,57392
45299,57380
45287,57409
45297,57395
45311,57391
45293,57397
45287,57399
45300,57383
45293,57379
45284,57359
45275,57339
45269,57318
45255,57304
45247,57288
45254,57255
45231,57246
45239,57243
45247,57222
45242,57220
45238,57236
45231,57244
45231,57227
45236,57235
45224,57234
45233,57227
45243,57248
45237,57223
45235,57224
45224,57217
45210,57222
45244,57201
45204,57200
45206,57198
45208,57184
45213,57191
45206,57189
45199,57178
45214,57177
45210,57181
45198,57170
45210,57163
45207,57174
45206,57161
45193,57162
45193,57183
45199,57163
45196,57163
45205,57159
45195,57164
45198,57161
45189,57150
45193,57155
45193,57138
45193,57136
45182,57123
45168,57150
45174,57137
45173,57119
45188,57143
45171,57127
45187,57109
45178,57134
45181,57119
45183,57117
45182,57122
45180,57114
45169,57115
45180,57128
45178,57120
45176,57130
45181,57138
45166,57132
45169,57128
45169,57131
45181,57123
45174,57117
45165,57121
45171,57126
45150,57123
45175,57117
45179,57107
45181,57124
45160,57135
45169,57127
45186,57114
45179,57110
45166,57135
45177,57133
45160,57115
45171,57133
45167,57123
45165,57135
45176,57128
45180,57125
45163,57145
45168,57129
45177,57123
45171,57155
45165,57132
45173,57114
45166,57155
45166,57122
45170,57152
45168,57145
45171,57154
45176,57136
45178,57148
45176,57137
45180,57143
45173,57162
45163,57155
45164,57153
45187,57163
45179,57161
45174,57185
45169,57162
45169,57168
45189,57188
45179,57172
45184,57170
45192,57171
45173,57191
45191,57181
45179,57179
45176,57179
45190,57193
45178,57199
45166,57193
45169,57185
45175,57192
45182,57205
45183,57213
45186,57218
45173,57184
45169,57156
45161,57139
45140,57114
45136,57113
45138,57073
45126,57062
45127,57049
45120,57015
45115,57028
45120,57016
45120,57008
45110,56999
45121,57005
45102,56983
45102,56994
45110,56980
45100,56986
45099,56981
45099,56969
45101,56968
45089,56973
45093,56961
45086,56933
45087,56941
45073,56920
45073,56929
45079,56908
45070,56912
45069,56884
45078,56896
45057,56900
45069,56887
45055,56878
45071,56884
45063,56889
45054,56886
45067,56873
45039,56860
45040,56869
45040,56853
45053,56859
45039,56863
45049,56853
45037,56831
45037,56831
45036,56823
45041,56811
45032,56824
45033,56822
45037,56832
45025,56811
45035,56811
45030,56809
45024,56797
45040,56801
45015,56798
45051,56807
45026,56815
45014,56816
45039,56809
45025,56810
45030,56840
45015,56812
45035,56784
45021,56756
45032,56823
45024,56807
45027,56808
45027,56805
45016,56808
45019,56795
45028,56793
45028,56813
45040,56797
45028,56808
45038,56789
45004,56814
45000,56818
44998,56829
45010,56811
45017,56818
45015,56806
45027,56818
45016,56826
45023,56819
45015,56815
45020,56823
45019,56827
45018,56821
45024,56826
45021,56816
45007,56810
45017,56822
45022,56827
45033,56838
45011,56848
45031,56827
45019,56843
45030,56843
45028,56845
45025,56844
45034,56853
45036,56862
45022,56855
45034,56849
45025,56850
45033,56865
45022,56853
45031,56861
45032,56863
45045,56883
45037,56859
45046,56859
45030,56867
45041,56876
45021,56881
45033,56893
45041,56887
45042,56890
45047,56898
45051,56883
45035,56884
45032,56850
45024,56838
45005,56809
44997,56792
44986,56765
44987,56741
44967,56710
44972,56697
44960,56685
44962,56666
44959,56669
44959,56643
44968,56644
44952,56652
44945,56652
44949,56643
44953,56632
44944,56621
44963,56639
44943,56620
44929,56609
44945,56606
44932,56600
44927,56605
44924,56577
44918,56573
44919,56556
44911,56555
44915,56542
44913,56540
44914,56530
44918,56548
44920,56530
44915,56537
44906,56545
44905,56523
44910,56517
44892,56513
44901,56522
44902,56515
44899,56518
44893,56486
44890,56483
44893,56472
44875,56486
44881,56459
44884,56468
44889,56459
44885,56461
44860,56455
44875,56449
44874,56432
44870,56436
44880,56452
44872,56455
44865,56438
44862,56433
44877,56440
44860,56435
44865,56442
44878,56436
44871,56445
44866,56441
44859,56439
44863,56454
44863,56443
44855,56445
44866,56433
44853,56432
44862,56440
44876,56427
44880,56430
44875,56449
44866,56436
44858,56439
44865,56432
44856,56438
44859,56425
44866,56441
44866,56451
44861,56446
44877,56442
44863,56453
44877,56456
44865,56465
44873,56448
44857,56456
44873,56451
44869,56441
44862,56433
44877,56463
44874,56459
44881,56463
44864,56458
44886,56465
44881,56473
44867,56481
44878,56466
44866,56486
44864,56479
44870,56480
44880,56477
44894,56489
44891,56502
44884,56487
44876,56488
44890,56485
44887,56497
44881,56507
44893,56499
44885,56520
44890,56501
44880,56510
44895,56525
44906,56531
44905,56522
44903,56521
44890,56525
44896,56548
44900,56562
44906,56544
44906,56536
44905,56533
44877,56511
44888,56488
44874,56458
44857,56428
44848,56399
44846,56378
44832,56347
44826,56337
44816,56305
44836,56299
44794,56285
44798,56273
44788,56266
44809,56263
44797,56260
44801,56263
44792,56266
44809,56245
44799,56242
44788,56220
44783,56223
44780,56204
44778,56206
44793,56183
44782,56172
44773,56159
44773,56153
44768,56145
44758,56122
44764,56142
44744,56127
44755,56147
44756,56116
44745,56127
44742,56119
44755,56092
44745,56104
44744,56105
44756,56100
44752,56100
44744,56083
44740,56093
44735,56090
44735,56079
44741,56074
44730,56066
44732,56049
44733,56063
44725,56072
44728,56067
44736,56055
44740,56049
44729,56065
44732,56055
44736,56056
44735,56055
44751,56052
44743,56081
44739,56076
44747,56079
44753,56080
44742,56102
44747,56104
44742,56080
44737,56064
44759,56089
44764,56075
44754,56091
44747,56103
44770,56102
44770,56103
44751,56101
44768,56111
44781,56104
44788,56086
44767,56114
44762,56112
44774,56118
44771,56117
44781,56122
44799,56122
44794,56119
44800,56139
44803,56133
44803,56134
44808,56134
44806,56159
44810,56145
44799,56159
44826,56154
44814,56168
44820,56157
44837,56192
44829,56187
44831,56195
44839,56201
44838,56189
44843,56192
44841,56204
44847,56207
44845,56207
44853,56219
44834,56229
44844,56219
44858,56209
44857,56233
44866,56251
44874,56255
44867,56249
44850,56247
44872,56272
44869,56268
44882,56280
44885,56268
44874,56269
44897,56285
44885,56274
44888,56296
44885,56292
44893,56299
44892,56310
44892,56296
44897,56320
44910,56320
44924,56333
44902,56328
44912,56309
44891,56306
44896,56284
44879,56244
44880,56227
44865,56193
44854,56161
44854,56136
44839,56108
44842,56088
44822,56077
44820,56069
44823,56069
44827,56061
44825,56040
44827,56043
44812,56035
44824,56037
44820,56042
44829,56041
44824,56027
44818,55998
44826,55979
44826,56006
44824,55982
44820,55985
44814,55981
44794,55980
44803,55957
44800,55958
44792,55957
44796,55937
44804,55926
44793,55949
44800,55946
44820,55954
44818,55953
44811,55943
44813,55936
44811,55950
44803,55939
44805,55946
44796,55932
44811,55934
44808,55937
44790,55937
44799,55930
44804,55919
44804,55920
44802,55929
44807,55915
44804,55925
44808,55906
44799,55920
44805,55934
44803,55925
44812,55930
44822,55932
44812,55931
44814,55942
44834,55950
44832,55937
44813,55961
44831,55961
44822,55946
44840,55967
44846,55971
44829,55957
44833,55971
44842,55978
44836,55963
44844,55978
44849,55972
44847,55988
44832,55971
44849,55989
44857,55987
44848,56004
44863,55994
44868,56005
44855,55998
44858,56026
44872,56014
44860,56028
44864,56018
44876,56028
44875,56036
44868,56036
44881,56042
44882,56058
44883,56036
44887,56032
44887,56062
44888,56057
44891,56066
44899,56084
44890,56084
44907,56089
44900,56076
44904,56088
44891,56088
44907,56096
44927,56112
44913,56105
44897,56119
44930,56127
44922,56110
44900,56120
44926,56141
44933,56138
44928,56138
44927,56155
44927,56156
44928,56157
44936,56161
44937,56164
44936,56156
44917,56119
44902,56099
44905,56077
44898,56048
44887,56015
44881,55990
44872,55961
44862,55938
44854,55911
44845,55918
44858,55884
44851,55890
44846,55875
44840,55874
44852,55872
44836,55879
44838,55870
44850,55862
44834,55869
44833,55855
44848,55845
44835,55832
44813,55812
44837,55818
44828,55806
44814,55802
44840,55795
44820,55790
44815,55792
44818,55782
44820,55781
44828,55798
44826,55799
44829,55787
44812,55797
44831,55785
44842,55797
44821,55777
44828,55781
44818,55770
44835,55764
44832,55777
44825,55766
44827,55770
44823,55764
44826,55775
44832,55751
44841,55773
44833,55763
44827,55766
44830,55759
44825,55780
44836,55786
44845,55786
44831,55786
44835,55781
44844,55789
44847,55809
44864,55804
44846,55817
44839,55814
44829,55828
44859,55829
44870,55873
44863,55852
44859,55836
44869,55822
44876,55845
44868,55831
44867,55858
44869,55867
44882,55873
44876,55884
44878,55888
44881,55892
44907,55882
44905,55898
44878,55912
44882,55912
44864,55907
44883,55925
44889,55922
44910,55926
44913,55937
44908,55938
44912,55946
44914,55957
44912,55955
44911,55973
44929,55971
44906,55974
44915,55979
44928,55988
44936,56008
44922,55996
44947,56008
44929,56014
44954,56026
44945,56038
44948,56031
44941,56034
44959,56038
44939,56056
44940,56047
44959,56060
44977,56067
44955,56063
44974,56082
44951,56104
44967,56100
44976,56090
44973,56115
44993,56129
44982,56113
44990,56120
44986,56132
44995,56136
44999,56127
44996,56135
44987,56142
44987,56110
44976,56097
44958,56053
44942,56026
44946,56003
44934,55961
44928,55931
44913,55909
44920,55895
44911,55883
44912,55872
44892,55847
44909,55852
44903,55848
44891,55843
44885,55861
44897,55832
44899,55826
44897,55830
44897,55810
44907,55807
44888,55789
44874,55782
44885,55770
44875,55754
44877,55749
44865,55742
44870,55722
44863,55726
44885,55714
44865,55722
44855,55725
44880,55743
44871,55728
44887,55731
44873,55735
44862,55742
44870,55753
44883,55734
44879,55738
44876,55739
44886,55739
44874,55735
44873,55734
44878,55740
44867,55725
44861,55729
44878,55721
44886,55719
44866,55723
44864,55732
44890,55732
44886,55735
44871,55736
44883,55763
44872,55748
44868,55759
44887,55776
44862,55762
44887,55779
44903,55783
44894,55783
44891,55797
44897,55789
44895,55799
44905,55808
44895,55803
44905,55820
44916,55837
44923,55840
44913,55845
44915,55840
44908,55841
44911,55857
44925,55855
44912,55868
44919,55865
44938,55878
44947,55878
44926,55884
44946,55893
44941,55892
44935,55913
44951,55905
44956,55917
44956,55927
44958,55922
44935,55947
44967,55933
44945,55959
44953,55958
44946,55963
44957,55972
44969,55976
44976,55982
44975,55991
44981,56002
44985,55991
44977,56001
44988,56021
44990,56013
44990,56030
44996,56034
44995,56043
45001,56039
44996,56062
44999,56056
45007,56072
45008,56064
45010,56078
45008,56092
45021,56085
45017,56096
45021,56093
45030,56121
45035,56120
45034,56125
45033,56113
45039,56134
45041,56166
45045,56150
45034,56158
45048,56169
45039,56173
45049,56181
45038,56156
45034,56149
45043,56113
45028,56095
45013,56069
45009,56046
45007,56022
44997,55998
44982,55995
44983,55979
44973,55954
44984,55960
44986,55977
44981,55962
44967,55966
44992,55974
44988,55963
44993,55976
44974,55960
44971,55969
44976,55957
44960,55952
44980,55950
44971,55949
44991,55933
44969,55940
44977,55931
44975,55925
44962,55927
44960,55939
44972,55925
44967,55950
44982,55938
44976,55955
44980,55938
44968,55948
44970,55952
44976,55968
44963,55949
44974,55956
44984,55951
44971,55934
44973,55964
44985,55958
44968,55956
44982,55956
44966,55948
44975,55956
44964,55959
44979,55965
44982,55977
44982,55974
44986,55980
44996,55961
44997,55988
44984,55994
44983,55991
44982,56009
44993,56001
45007,56018
44998,56019
44993,56033
45001,56018
45035,56031
45008,56041
44987,56034
45007,56047
45003,56074
45014,56062
45005,56057
45005,56048
45021,56069
45019,56084
45023,56089
45017,56108
45027,56107
45020,56099
45017,56115
45034,56121
45048,56134
45057,56120
45032,56128
45035,56138
44989,56139
45024,56146
45043,56150
45033,56157
45047,56153
45052,56156
45060,56160
45046,56180
45054,56174
45044,56200
45063,56201
45044,56210
45055,56205
45053,56223
45073,56196
45058,56215
45065,56241
45072,56234
45078,56254
45071,56238
45073,56263
45080,56267
45080,56268
45075,56259
45067,56253
45059,56224
45045,56216
45039,56202
45041,56186
45033,56145
45032,56151
45013,56124
45017,56105
45009,56108
45009,56103
45008,56095
45006,56087
45014,56072
44999,56103
44988,56075
45019,56069
45005,56068
44994,56065
44990,56066
44995,56060
44982,56052
44978,56049
45012,56033
44990,56042
44981,56036
45003,56035
44972,56023
44992,56020
44993,56041
44980,56029
44997,56038
44999,56044
44995,56044
44988,56050
44979,56054
45004,56055
45000,56052
45006,56054
45000,56043
44987,56055
44988,56047
44991,56064
44999,56045
44991,56053
45015,56062
44987,56049
44994,56041
44985,56063
44989,56055
45004,56057
45008,56049
44997,56066
45011,56063
45005,56083
44990,56087
45011,56081
45002,56082
45012,56112
45012,56089
45015,56091
45007,56092
45026,56110
45003,56114
45013,56119
45032,56115
45016,56147
45031,56144
45029,56141
45020,56146
45029,56166
45029,56157
45015,56147
45032,56160
45034,56163
45031,56170
45026,56163
45038,56166
45050,56203
45055,56188
45042,56200
45039,56197
45033,56197
45043,56214
45041,56221
45052,56201
45042,56212
45066,56219
45050,56221
45054,56243
45066,56243
45055,56235
45057,56247
45042,56246
45058,56259
45079,56255
45061,56268
45073,56287
45066,56290
45071,56291
45076,56289
45069,56304
45068,56296
45088,56303
45080,56313
45085,56309
45085,56314
45093,56327
45085,56341
45093,56344
45094,56350
45092,56352
45102,56360
45088,56355
45103,56377
45091,56371
45112,56373
45099,56389
45116,56392
45115,56396
45113,56409
45117,56403
45106,56410
45114,56429
45115,56418
45120,56425
45133,56412
45116,56424
45106,56405
45109,56398
45081,56372
45095,56358
45085,56340
45079,56311
45060,56277
45055,56275
45067,56264
45055,56251
45052,56256
45059,56245
45059,56247
45080,56247
45042,56245
45038,56227
45058,56234
45049,56236
45049,56230
45052,56208
45047,56227
45031,56207
45051,56205
45033,56203
45028,56188
45016,56180
45056,56174
45040,56178
45031,56161
45024,56156
45022,56168
45027,56176
45017,56174
45033,56171
45018,56170
45047,56179
45020,56165
45029,56179
45023,56159
45014,56177
45005,56169
45016,56163
45010,56160
45021,56162
45013,56149
45017,56145
45003,56133
45011,56140
45012,56164
45011,56133
45011,56139
45010,56148
45012,56153
45013,56141
45016,56142
45012,56158
45003,56146
45007,56168
45025,56161
45012,56171
45018,56155
45014,56181
45023,56166
45017,56168
45039,56176
45017,56170
45028,56184
45008,56189
45025,56182
45027,56184
45019,56178
45023,56200
45007,56192
45038,56215
45015,56217
45017,56229
45016,56202
45008,56209
45005,56211
45046,56219
45046,56236
45033,56242
45022,56241
45041,56192
45026,56238
45034,56239
45043,56258
45034,56252
45044,56261
45045,56276
45041,56261
45058,56265
45063,56287
45056,56276
45050,56278
45036,56286
45039,56176
45071,56313
45057,56317
45060,56309
45061,56303
45059,56318
45070,56327
45063,56320
45072,56341
45071,56362
45076,56347
45075,56354
45081,56373
45070,56377
45084,56367
45085,56366
45085,56376
45077,56384
45054,56369
45054,56343
45063,56335
45060,56295
45037,56280
45040,56272
45048,56243
45039,56239
45027,56241
45029,56237
45022,56220
45033,56257
45030,56238
45034,56251
45037,56245
45037,56259
45050,56239
45045,56258
45027,56248
45039,56253
45046,56234
45030,56245
45012,56234
45019,56222
45037,56222
45025,56225
45023,56223
45016,56228
45028,56231
45022,56209
45021,56219
45031,56224
45026,56241
45021,56261
45024,56235
45022,56240
45021,56251
45029,56252
45017,56241
45021,56242
45019,56246
45014,56252
45035,56251
45012,56257
45023,56237
45028,56256
45026,56253
45015,56259
45019,56243
45020,56264
45009,56277
45021,56276
45031,56273
45025,56261
45032,56266
45025,56272
45043,56284
45041,56284
45032,56291
45036,56314
45028,56296
45033,56303
45030,56305
45041,56312
45045,56307
45033,56321
45041,56317
45033,56334
45045,56334
45054,56340
45058,56345
45042,56343
45066,56338
45045,56363
45048,56367
45060,56364
45043,56375
45048,56355
45059,56392
45058,56376
45044,56388
45055,56393
45065,56408
45057,56394
45062,56420
45079,56412
45075,56416
45062,56405
45060,56420
45071,56422
45068,56412
45084,56444
45073,56448
45082,56439
45070,56446
45079,56455
45082,56454
45088,56457
45097,56483
45087,56466
45092,56470
45086,56491
45095,56486
45083,56489
45093,56492
45105,56507
45088,56517
45095,56516
45101,56512
45085,56531
45095,56534
45106,56534
45101,56529
45101,56539
45113,56554
45101,56557
45111,56554
45105,56561
45089,56568
45104,56568
45126,56571
45120,56565
45129,56595
45125,56587
45116,56596
45110,56610
45137,56617
45126,56599
45113,56619
45115,56609
45101,56595
45100,56576
45094,56564
45105,56540
45078,56524
45074,56517
45088,56513
45083,56508
45082,56504
45085,56509
45106,56509
45097,56506
45103,56535
45077,56532
45094,56530
45084,56538
45086,56538
45106,56531
45091,56551
45110,56544
45094,56526
45095,56550
45097,56517
45080,56521
45081,56531
45086,56522
45084,56516
45084,56535
45094,56527
45093,56531
45096,56524
45089,56550
45093,56539
45099,56561
45098,56593
45108,56564
45100,56576
45104,56559
45087,56557
45108,56569
45102,56575
45106,56575
45107,56553
45091,56569
45107,56565
45085,56572
45093,56582
45105,56581
45105,56580
45102,56582
45101,56586
45111,56590
45114,56587
45103,56591
45117,56594
45115,56595
45103,56600
45108,56600
45110,56619
45102,56620
45118,56615
45108,56619
45108,56624
45119,56628
45117,56666
45093,56644
45106,56639
45111,56637
45112,56647
45114,56622
45116,56670
45118,56661
45121,56653
45125,56659
45122,56668
45125,56667
45116,56677
45107,56673
45126,56695
45105,56678
45119,56692
45143,56699
45122,56722
45131,56718
45142,56676
45152,56655
45121,56699
45127,56705
45141,56719
45139,56741
45136,56727
45134,56736
45131,56741
45138,56740
45157,56745
45181,56762
45125,56752
45117,56762
45161,56771
45133,56770
45148,56776
45151,56767
45153,56779
45154,56793
45139,56794
45169,56777
45164,56792
45159,56815
45147,56802
45165,56817
45168,56818
45156,56825
45165,56811
45177,56835
45183,56821
45176,56825
45163,56834
45160,56847
45180,56841
45186,56845
45167,56859
45188,56849
45181,56866
45185,56865
45186,56863
45176,56865
45178,56834
45171,56829
45172,56818
45162,56821
45176,56806
45158,56789
45154,56783
45141,56774
45145,56786
45149,56785
45151,56769
45152,56789
45153,56786
45150,56810
45149,56796
45164,56817
45166,56808
45153,56814
45173,56823
45156,56818
45169,56807
45157,56811
45156,56810
45153,56818
45150,56802
45147,56807
45161,56813
45158,56801
45163,56822
45140,56814
45162,56822
45163,56822
45166,56826
45161,56842
45160,56830
45169,56845
45150,56833
45159,56837
45168,56854
45174,56832
45173,56844
45176,56838
45167,56846
45155,56839
45166,56837
45159,56831
45158,56843
45157,56850
45168,56844
45164,56844
45168,56874
45165,56860
45164,56855
45159,56863
45154,56865
45162,56876
45179,56878
45175,56879
45172,56887
45170,56882
45161,56892
45169,56896
45167,56885
45179,56885
45175,56886
45165,56890
45175,56890
45178,56897
45163,56909
45173,56911
45165,56898
45182,56906
45181,56898
45163,56907
45176,56907
45166,56907
45163,56925
45184,56939
45182,56919
45182,56929
45175,56933
45182,56933
45192,56933
45175,56928
45189,56946
45185,56949
45179,56949
45182,56953
45196,56962
45173,56945
45181,56953
45190,56958
45187,56970
45170,56969
45191,56960
45195,56991
45189,56981
45192,56969
45186,56983
45201,56996
45191,56986
45195,56983
45197,56998
45199,56999
45202,57002
45197,57004
45195,56998
45200,57006
45200,57019
45199,57019
45189,57026
45207,57018
45214,57037
45206,57044
45194,57034
45209,57021
45219,57059
45207,57050
45202,57042
45193,57055
45198,57036
45226,57050
45212,57039
45198,57020
45187,56987
45170,56986
45175,56954
45163,56942
45172,56937
45167,56944
45178,56935
45173,56924
45175,56920
45166,56931
45163,56937
45165,56919
45178,56934
45164,56937
45159,56942
45186,56944
45171,56953
45160,56936
45174,56921
45161,56910
45157,56910
45168,56917
45153,56921
45146,56910
45135,56893
45147,56893
45153,56899
45144,56887
45133,56883
45148,56900
45145,56893
45127,56903
45150,56902
45156,56910
45148,56882
45140,56879
45157,56907
45144,56902
45151,56898
45138,56901
45125,56902
45142,56878
45140,56888
45134,56900
45126,56877
45132,56881
45137,56898
45130,56901
45138,56870
45132,56886
45137,56899
45131,56906
45137,56878
45144,56881
45140,56880
45118,56880
45129,56893
45124,56893
45133,56905
45139,56899
45129,56886
45139,56896
45135,56892
45120,56886
45128,56858
45143,56883
45124,56900
45145,56896
45135,56901
45125,56907
45141,56898
45135,56894
45131,56902
45135,56902
45154,56901
45123,56918
45146,56904
45145,56926
45128,56940
45125,56934
45135,56914
45138,56889
45133,56903
45132,56932
45139,56922
45142,56942
45138,56933
45125,56929
45131,56926
45165,56939
45163,56941
45177,56944
45120,56939
45144,56951
45135,56892
45131,56955
45142,56956
45147,56963
45139,56956
45157,56952
45148,56959
45163,56974
45141,56967
45139,56962
45139,56981
45144,56974
45148,56980
45147,56978
45151,56979
45153,56986
45159,56999
45163,56990
45148,57006
45160,57002
45159,56997
45167,57003
45164,57010
45157,57013
45164,57006
45166,57017
45159,57028
45160,57021
45158,57012
45158,57016
45161,56989
45126,56971
45132,56951
45123,56931
45138,56897
45106,56886
45106,56872
45117,56853
45119,56858
45096,56852
45114,56863
45105,56854
45098,56850
45088,56875
45101,56852
45094,56852
45100,56850
45104,56847
45105,56865
45097,56851
45099,56851
45104,56831
45084,56830
45092,56821
45087,56826
45093,56825
45082,56811
45079,56802
45066,56816
45072,56807
45075,56803
45074,56805
45083,56805
45077,56810
45084,56797
45079,56797
45084,56809
45080,56800
45073,56809
45076,56816
45082,56791
45057,56784
45075,56794
45054,56782
45064,56768
45058,56769
45063,56773
45065,56767
45063,56772
45058,56773
45060,56775
45063,56775
45063,56774
45060,56766
45045,56772
45055,56769
45040,56771
45052,56758
45065,56777
45066,56762
45060,56788
45059,56776
45042,56776
45059,56763
45060,56774
45071,56794
45056,56781
45060,56762
45059,56793
45047,56770
45057,56773
45052,56783
45067,56782
45063,56769
45051,56774
45058,56772
45058,56788
45069,56772
45069,56790
45061,56773
45055,56786
45047,56781
45053,56781
45062,56800
45044,56792
45066,56775
45066,56797
45067,56806
45048,56788
45051,56792
45062,56799
45068,56806
45064,56811
45049,56805
45052,56811
45069,56823
45055,56816
45074,56823
45070,56820
45068,56831
45065,56829
45065,56811
45065,56815
45084,56827
45057,56837
45076,56846
45081,56843
45068,56825
45079,56825
45070,56830
45066,56823
45084,56816
45073,56808
45049,56772
45055,56764
45038,56742
45026,56729
45034,56696
45003,56673
45026,56666
45006,56652
44988,56649
45012,56629
44991,56646
44989,56628
45000,56643
44991,56626
44982,56643
44995,56638
44997,56628
44989,56604
44995,56620
44972,56594
44975,56605
44974,56607
44971,56564
44968,56560
44977,56540
44963,56538
44976,56528
44950,56540
44965,56536
44962,56552
44948,56529
44964,56533
44957,56535
44948,56532
44946,56522
44954,56526
44950,56520
44961,56521
44966,56513
44944,56503
44946,56499
44933,56485
44941,56476
44945,56474
44935,56484
44937,56476
44939,56473
44934,56475
44931,56446
44928,56463
44931,56457
44916,56451
44927,56471
44924,56460
44925,56473
44916,56460
44928,56456
44933,56465
44933,56461
44930,56459
44914,56457
44931,56446
44922,56454
44924,56454
44915,56468
44924,56475
44928,56462
44928,56468
44932,56459
44922,56445
44929,56463
44931,56459
44931,56433
44925,56465
44923,56457
44920,56466
44935,56448
44925,56456
44914,56458
44922,56460
44934,56459
44919,56468
44930,56465
44918,56478
44930,56492
44933,56493
44936,56490
44933,56478
44933,56472
44943,56475
44920,56492
44938,56499
44928,56482
44932,56492
44944,56494
44933,56506
44948,56496
44957,56515
44968,56518
44968,56518
44955,56510
44940,56525
44948,56513
44926,56536
44958,56530
44947,56526
44946,56531
44943,56538
44954,56535
44955,56541
44958,56537
44956,56554
44955,56560
44939,56553
44956,56564
44950,56574
44958,56578
44955,56560
44965,56572
44963,56573
44976,56573
44950,56560
44956,56519
44932,56494
44932,56485
44927,56454
44907,56432
44910,56405
44891,56380
44901,56368
44911,56358
44885,56344
44878,56354
44904,56335
44884,56343
44891,56337
44870,56343
44883,56340
44883,56330
44880,56333
44881,56315
44863,56314
44873,56297
44869,56293
44870,56276
44859,56280
44875,56274
44855,56247
44863,56249
44848,56250
44849,56250
44844,56238
44848,56232
44848,56227
44852,56235
44839,56245
44838,56222
44860,56232
44833,56239
44846,56222
44833,56215
44831,56219
44839,56223
44846,56204
44833,56200
44822,56200
44820,56196
44835,56183
44841,56189
44814,56177
44826,56176
44819,56178
44826,56196
44832,56187
44809,56180
44857,56188
44834,56190
44839,56192
44838,56186
44827,56185
44814,56201
44829,56175
44827,56191
44829,56214
44831,56214
44845,56201
44837,56208
44840,56206
44842,56218
44839,56205
44841,56207
44852,56210
44837,56223
44835,56208
44834,56212
44841,56238
44853,56226
44843,56230
44842,56226
44844,56234
44841,56241
44839,56252
44848,56261
44847,56253
44864,56254
44847,56245
44856,56248
44861,56255
44855,56264
44855,56271
44849,56274
44871,56272
44861,56276
44869,56273
44874,56293
44861,56283
44870,56287
44858,56293
44876,56301
44865,56301
44888,56300
44885,56317
44875,56332
44887,56323
44886,56335
44885,56337
44877,56341
44885,56342
44888,56341
44897,56353
44899,56354
44902,56350
44901,56387
44905,56378
44896,56388
44911,56385
44918,56379
44910,56402
44905,56393
44903,56418
44905,56409
44901,56412
44931,56407
44917,56384
44916,56383
44892,56377
44902,56335
44883,56320
44881,56291
44864,56255
44862,56252
44876,56227
44869,56231
44855,56223
44845,56206
44862,56207
44852,56210
44863,56210
44863,56207
44860,56199
44868,56216
44866,56219
44877,56222
44881,56202
44862,56220
44868,56211
44855,56182
44848,56203
44847,56176
44849,56181
44856,56170
44858,56182
44853,56171
44858,56168
44850,56160
44858,56174
44868,56185
44863,56180
44856,56166
44850,56178
44860,56179
44860,56168
44850,56181
44840,56181
44851,56161
44858,56173
44856,56160
44859,56159
44865,56153
44847,56166
44858,56161
44863,56171
44850,56175
44850,56163
44868,56164
44864,56174
44868,56185
44877,56171
44871,56169
44882,56174
44874,56186
44868,56204
44891,56207
44890,56192
44883,56210
44875,56217
44885,56201
44886,56217
44893,56218
44891,56207
44872,56228
44889,56217
44894,56241
44890,56219
44904,56249
44888,56243
44902,56248
44908,56217
44906,56251
44908,56257
44917,56260
44919,56254
44922,56258
44914,56267
44910,56283
44908,56275
44935,56301
44941,56295
44938,56296
44926,56295
44923,56297
44932,56320
44937,56310
44932,56299
44930,56284
44944,56303
44962,56323
44935,56347
44934,56348
44937,56348
44948,56358
44951,56360
44952,56355
44962,56367
44974,56370
44959,56363
44964,56357
44888,56243
44933,56389
44963,56408
44957,56399
44968,56404
44962,56400
44952,56379
44971,56382
44952,56366
44933,56338
44940,56313
44924,56290
44930,56263
44920,56261
44907,56255
44917,56234
44908,56215
44926,56236
44912,56231
44921,56219
44920,56232
44917,56224
44907,56236
44915,56221
44915,56238
44909,56212
44917,56217
44910,56213
44914,56213
44913,56202
44911,56205
44904,56183
44911,56163
44908,56178
44908,56176
44883,56161
44897,56171
44896,56180
44919,56173
44908,56176
44908,56179
44906,56178
44930,56178
44914,56197
44905,56164
44907,56174
44906,56174
44901,56176
44895,56162
44908,56168
44903,56144
44907,56172
44892,56165
44908,56162
44902,56166
44903,56172
44901,56181
44915,56169
44910,56177
44901,56173
44915,56187
44922,56185
44898,56192
44920,56184
44927,56205
44928,56196
44925,56184
44930,56206
44929,56211
44927,56212
44912,56211
44920,56198
44928,56224
44931,56223
44948,56233
44936,56239
44939,56231
44943,56239
44930,56254
44945,56251
44936,56237
44935,56237
44929,56254
44950,56261
44950,56265
44960,56275
44943,56264
44954,56264
44967,56283
44952,56288
44973,56278
44952,56286
44959,56298
44956,56322
44955,56286
44956,56317
44967,56305
44957,56324
44968,56314
44956,56322
44965,56336
44966,56340
44983,56349
44987,56335
44985,56353
44972,56339
44966,56351
44987,56365
44992,56365
44988,56371
44985,56365
44984,56378
45002,56376
45004,56390
45003,56397
44992,56399
45020,56391
45006,56409
44990,56408
45017,56427
44993,56429
45010,56425
45020,56423
45002,56421
45011,56444
45024,56450
45021,56456
45007,56456
45017,56467
45021,56455
45041,56467
45017,56466
45027,56476
45024,56461
44999,56440
44993,56402
44998,56404
44993,56361
44977,56346
44981,56320
44967,56312
44970,56311
44982,56292
44972,56303
44966,56299
44964,56308
44971,56310
44973,56292
44973,56320
44974,56309
44979,56298
44980,56306
44977,56303
44977,56285
44970,56294
44969,56281
44965,56257
44966,56277
44976,56276
44972,56261
44955,56251
44956,56276
44937,56258
44966,56260
44957,56263
44958,56259
44950,56260
44974,56274
44956,56258
44964,56269
44951,56271
44959,56258
44965,56260
44951,56255
44946,56248
44945,56255
44965,56243
44953,56241
44956,56247
44957,56254
44945,56248
44953,56250
44947,56239
44954,56257
44952,56255
44946,56261
44953,56251
44961,56241
44949,56249
44970,56243
44954,56267
44974,56278
44973,56270
44975,56258
44969,56268
44965,56276
44973,56269
44969,56284
44971,56277
44963,56282
44946,56270
44971,56289
44963,56281
44967,56306
44957,56289
44970,56294
44970,56300
44974,56305
44987,56295
44978,56323
44977,56321
44977,56313
44969,56329
44966,56328
44992,56310
44975,56312
44976,56336
44977,56336
44981,56349
44976,56340
44981,56337
44983,56340
44974,56350
44988,56362
44993,56366
45016,56370
44989,56363
44985,56375
44997,56368
44998,56375
45008,56430
44982,56430
45011,56389
44976,56371
45005,56395
45008,56406
44998,56411
44993,56429
45003,56431
45017,56425
45007,56405
45013,56406
45020,56404
45000,56373
44978,56353
44962,56330
44951,56308
44965,56295
44945,56283
44956,56257
44945,56255
44951,56264
44953,56257
44958,56256
44953,56244
44942,56260
44950,56266
44952,56262
44953,56251
44962,56260
44950,56252
44937,56246
44936,56235
44940,56221
44932,56217
44921,56211
44928,56211
44941,56207
44922,56193
44925,56192
44916,56185
44927,56201
44927,56191
44929,56200
44930,56191
44938,56215
44932,56212
44924,56209
44934,56195
44949,56209
44915,56203
44936,56209
44923,56196
44942,56210
44928,56186
44921,56213
44914,56186
44922,56205
44917,56215
44930,56190
44925,56196
44929,56203
44922,56204
44935,56200
44931,56211
44916,56200
44920,56204
44917,56238
44915,56231
44929,56213
44925,56209
44935,56236
44927,56231
44923,56238
44940,56247
44928,56248
44945,56257
44946,56263
44948,56264
44956,56274
44943,56259
44944,56258
44946,56265
44941,56262
44943,56271
44942,56282
44949,56270
44946,56300
44952,56299
44959,56287
44958,56311
44956,56305
44958,56301
44958,56304
44952,56319
44963,56319
44957,56328
44974,56350
44954,56336
44963,56337
44976,56337
44973,56362
44972,56365
44958,56346
44977,56368
44984,56389
44982,56376
44965,56374
44976,56364
44986,56388
44980,56388
44990,56393
44986,56403
44986,56412
44989,56425
44995,56412
44991,56431
44998,56415
45007,56434
45010,56429
44997,56448
45004,56447
45013,56453
44994,56448
45011,56452
45015,56476
44995,56469
45013,56480
45000,56476
45017,56488
45016,56510
45010,56497
45015,56487
45015,56512
45028,56512
45028,56510
45019,56522
45022,56527
45035,56539
45020,56551
45036,56543
45043,56561
45041,56540
45034,56557
