43348,54363
43316,54382
43346,54367
43322,54355
43321,54365
43319,54373
43327,54340
43316,54380
43329,54381
43325,54385
43332,54396
43318,54405
43322,54405
43324,54422
43309,54420
43315,54434
43347,54430
43331,54469
43343,54447
43332,54447
43323,54439
43284,54331
43250,54255
43233,54208
43234,54170
43206,54160
43206,54141
43192,54129
43195,54107
43197,54105
43185,54107
43207,54127
43207,54129
43234,54123
43203,54153
43210,54146
43186,54162
43196,54161
43210,54190
43223,54184
43226,54205
43226,54230
43235,54235
43253,54276
43259,54293
43278,54327
43291,54342
43293,54394
43306,54420
43329,54445
43337,54448
43351,54495
43352,54510
43347,54540
43362,54533
43364,54535
43369,54547
43362,54548
43358,54537
43356,54519
43358,54486
43330,54463
43307,54452
43280,54406
43287,54389
43279,54345
43262,54314
43220,54291
43210,54276
43209,54239
43196,54233
43182,54220
43193,54186
43172,54198
43160,54202
43172,54187
43165,54194
43178,54178
43183,54205
43174,54196
43191,54186
43174,54181
43149,54200
43180,54195
43173,54197
43177,54215
43179,54205
43184,54210
43176,54221
43171,54223
43177,54206
43190,54213
43186,54212
43189,54222
43179,54222
43185,54226
43167,54221
43168,54231
43181,54247
43186,54247
43193,54246
43195,54250
43174,54259
43166,54238
43139,54208
43128,54138
43107,54074
43086,54039
43083,53981
43064,53941
43052,53905
43029,53872
43020,53848
43024,53836
43026,53838
43028,53838
43032,53814
43035,53835
43043,53827
43044,53829
43042,53828
43038,53836
43040,53854
43055,53862
43068,53854
43055,53853
43063,53848
43059,53841
43056,53844
43054,53841
43069,53865
43063,53847
43076,53868
43077,53871
43073,53870
43071,53876
43078,53890
43070,53885
43072,53884
43082,53872
43063,53869
43088,53876
43077,53861
43069,53860
43064,53861
43054,53853
43070,53839
43058,53840
43061,53837
43073,53831
43067,53834
43061,53851
43061,53836
43069,53847
43061,53843
43074,53845
43083,53866
43081,53869
43077,53870
43080,53878
43083,53871
43080,53868
43094,53873
43089,53885
43092,53891
43086,53895
43121,53902
43108,53906
43086,53914
43094,53919
43103,53927
43090,53937
43120,53937
43107,53941
43118,53947
43107,53937
43126,53929
43115,53929
43101,53907
43092,53857
43059,53806
43047,53757
43017,53709
43026,53698
43007,53652
43007,53610
42987,53584
42980,53571
42983,53589
42988,53539
42981,53557
42986,53563
42982,53552
42985,53577
42998,53567
42999,53546
42992,53549
43004,53549
42999,53561
42989,53560
42999,53554
42990,53555
42984,53553
43009,53556
43004,53569
42993,53584
43000,53568
42996,53568
43001,53578
43008,53576
43008,53596
43007,53589
43009,53578
43019,53586
43001,53588
43013,53578
42992,53569
42995,53556
42986,53557
42998,53563
43004,53555
42987,53561
43000,53572
43011,53558
42999,53570
42991,53573
43001,53572
43007,53567
43012,53569
43011,53588
43014,53588
42997,53578
43017,53596
43028,53607
43007,53600
43023,53608
43029,53611
43012,53621
43019,53624
43028,53628
43027,53637
43025,53643
43024,53642
43031,53654
43068,53665
43029,53673
43031,53665
43055,53674
43041,53696
43049,53677
43033,53658
43014,53614
43002,53566
42980,53511
42978,53457
42948,53436
42946,53394
42951,53368
42920,53337
42910,53318
42919,53303
42913,53252
42900,53291
42913,53292
42915,53273
42917,53283
42906,53274
42926,53278
42907,53286
42906,53297
42911,53287
42938,53277
42913,53284
42905,53267
42897,53263
42923,53291
42901,53289
42918,53273
42907,53243
42902,53237
42924,53284
42934,53281
42914,53295
42919,53278
42935,53307
42921,53290
42917,53300
42935,53301
42959,53289
42927,53287
42913,53283
42891,53270
42883,53275
42896,53268
42932,53267
42902,53268
42915,53276
42911,53260
42913,53291
42925,53285
42909,53302
42931,53289
42927,53290
42938,53307
42945,53295
42932,53310
42941,53316
42941,53324
42943,53346
42947,53336
42943,53362
42961,53351
42968,53355
42944,53367
42956,53353
42970,53386
42958,53383
42956,53404
42964,53392
42986,53411
42967,53410
42969,53417
42963,53406
42954,53378
42931,53344
42916,53287
42903,53259
42898,53184
42878,53164
42879,53121
42860,53103
42855,53064
42842,53066
42846,53052
42851,53049
42843,53030
42842,53041
42855,53035
42846,53048
42869,53047
42848,53049
42835,53051
42849,53040
42848,53044
42851,53047
42854,53037
42849,53041
42854,53036
42833,53045
42855,53042
42847,53037
42851,53050
42847,53046
42870,53048
42855,53065
42884,53059
42860,53071
42873,53068
42857,53061
42862,53068
42878,53067
42863,53082
42862,53075
42859,53067
42859,53067
42863,53050
42870,53068
42851,53069
42867,53046
42871,53074
42856,53053
42872,53077
42864,53070
42869,53064
42875,53085
42894,53090
42882,53105
42887,53121
42886,53109
42884,53121
42892,53126
42890,53124
42904,53135
42914,53135
42912,53154
42904,53169
42907,53159
42921,53195
42908,53181
42919,53184
42923,53203
42930,53206
42926,53209
42931,53218
42926,53220
42935,53231
42926,53223
42941,53238
42952,53257
42946,53253
42939,53257
42961,53277
42958,53293
42943,53304
42947,53283
42933,53254
42931,53208
42914,53159
42900,53134
42883,53085
42865,53031
42879,53006
42849,52969
42845,52959
42841,52918
42847,52920
42850,52932
42829,52911
42829,52904
42834,52907
42835,52928
42841,52931
42844,52922
42839,52918
42831,52945
42843,52948
42855,52937
42866,52941
42844,52939
42860,52950
42849,52950
42846,52953
42859,52962
42859,52967
42873,52951
42876,52980
42867,52964
42878,52982
42851,52967
42873,52988
42879,52991
42855,52988
42871,52979
42861,52977
42879,52956
42858,52966
42870,52978
42868,52944
42868,52948
42859,52962
42871,52954
42880,52959
42872,52961
42892,52966
42877,52956
42868,52976
42884,52998
42878,52989
42881,53005
42882,53005
42889,53002
42883,53010
42896,53012
42888,53037
42901,53040
42906,53038
42917,53041
42914,53064
42915,53062
42910,53080
42906,53074
42927,53072
42907,53077
42940,53092
42908,53105
42931,53105
42933,53110
42915,53120
42933,53125
42934,53120
42909,53096
42905,53066
42910,53024
42885,52990
42872,52934
42859,52913
42835,52876
42849,52862
42817,52837
42840,52832
42838,52808
42839,52797
42836,52795
42824,52798
42839,52807
42831,52801
42811,52803
42832,52795
42833,52813
42847,52806
42832,52815
42835,52826
42822,52807
42846,52793
42826,52814
42823,52802
42836,52816
42824,52821
42830,52828
42840,52834
42845,52836
42842,52851
42846,52845
42852,52841
42850,52841
42843,52828
42861,52854
42863,52838
42843,52841
42851,52824
42845,52830
42852,52820
42849,52808
42838,52831
42854,52843
42851,52835
42849,52835
42855,52844
42865,52864
42869,52833
42861,52880
42837,52859
42870,52882
42882,52880
42880,52914
42880,52932
42889,52889
42884,52912
42892,52912
42884,52948
42906,52952
42902,52955
42908,52942
42908,52960
42908,52961
42905,52991
42931,52973
42948,52994
42934,53005
42882,53014
42928,53025
42908,53005
42923,53042
42942,53029
42944,53039
42925,53037
42922,52999
42910,52988
42891,52946
42886,52904
42881,52872
42878,52847
42858,52796
42854,52787
42852,52769
42831,52749
42836,52750
42829,52741
42849,52735
42861,52741
42830,52747
42842,52740
42853,52728
42838,52751
42837,52745
42841,52740
42849,52718
42839,52738
42840,52734
42841,52726
42841,52736
42847,52728
42850,52727
42857,52716
42847,52738
42849,52731
42847,52753
42846,52758
42858,52762
42867,52772
42849,52764
42860,52772
42859,52782
42864,52773
42871,52786
42861,52779
42859,52771
42854,52767
42868,52782
42857,52779
42860,52771
42873,52800
42877,52779
42869,52795
42871,52799
42873,52803
42868,52812
42888,52830
42878,52826
42887,52836
42891,52841
42899,52865
42894,52859
42902,52869
42917,52892
42900,52892
42918,52915
42915,52917
42925,52916
42929,52936
42941,52930
42942,52951
42933,52956
42939,52966
42954,52964
42934,52979
42935,52989
42957,52985
42965,52994
42962,52997
42975,53021
42975,53029
42969,53029
42976,53050
42970,53046
42987,53059
43002,53066
42990,53074
42995,53098
43000,53098
43023,53110
43020,53121
43012,53132
43026,53145
43026,53139
43027,53169
43033,53167
43037,53174
43042,53192
43029,53200
43054,53195
43059,53220
43065,53227
43063,53242
43073,53251
43069,53258
43080,53262
43098,53266
43093,53288
43097,53299
43086,53308
43091,53329
43093,53323
43112,53330
43108,53336
43106,53355
43116,53370
43121,53364
43131,53378
43153,53391
43144,53403
43126,53407
43133,53399
43130,53357
43101,53315
43085,53286
43089,53253
43066,53211
43072,53201
43061,53164
43049,53155
43046,53131
43030,53132
43050,53118
43045,53124
43061,53133
43051,53130
43063,53128
43060,53132
43058,53136
43048,53142
43066,53149
43068,53149
43058,53138
43051,53144
43063,53125
43052,53125
43051,53131
43063,53137
43050,53132
43068,53131
43063,53150
43071,53167
43070,53143
43067,53157
43078,53146
43079,53150
43074,53148
43067,53150
43082,53138
43072,53159
43065,53166
43052,53159
43075,53159
43072,53163
43064,53157
43060,53153
43069,53168
43073,53157
43060,53170
43081,53166
43069,53174
43082,53168
43085,53186
43088,53198
43101,53195
43088,53202
43086,53203
43104,53205
43086,53218
43099,53221
43097,53228
43104,53229
43106,53243
43102,53236
43100,53259
43103,53274
43118,53267
43128,53266
43114,53278
43124,53282
43122,53282
43131,53299
43132,53312
43135,53316
43132,53318
43130,53301
43143,53322
43146,53321
43151,53330
43140,53341
43158,53360
43155,53360
43127,53365
43148,53368
43155,53377
43164,53396
43180,53389
43153,53392
43163,53400
43177,53416
43169,53396
43172,53392
43158,53350
43153,53337
43135,53288
43145,53276
43113,53231
43094,53217
43101,53210
43098,53183
43097,53194
43087,53134
43086,53129
43098,53139
43093,53132
43074,53133
43085,53134
43067,53124
43088,53129
43064,53131
43085,53118
43064,53119
43081,53119
43075,53113
43076,53102
43059,53124
43080,53121
43070,53128
43087,53135
43069,53166
43077,53111
43078,53093
43072,53106
43077,53130
43098,53142
43081,53138
43095,53140
43083,53144
43093,53156
43076,53133
43105,53127
43116,53127
43101,53129
43070,53132
43081,53122
43063,53137
43084,53134
43097,53141
43091,53144
43078,53145
43093,53149
43104,53144
43099,53157
43096,53161
43104,53169
43086,53185
43108,53187
43091,53187
43137,53184
43105,53212
43112,53214
43116,53208
43122,53221
43119,53241
43119,53231
43135,53245
43125,53255
43129,53258
43133,53256
43135,53273
43137,53271
43145,53278
43153,53268
43154,53300
43158,53313
43170,53304
43162,53299
43153,53316
43166,53337
43166,53322
43167,53345
43151,53331
43166,53356
43183,53365
43179,53355
43173,53367
43177,53354
43161,53332
43157,53318
43139,53288
43122,53252
43116,53217
43126,53180
43100,53163
43108,53142
43113,53128
43083,53115
43085,53110
43099,53102
43104,53096
43094,53083
43098,53093
43074,53090
43071,53087
43080,53090
43087,53085
43081,53091
43083,53073
43073,53078
43071,53068
43066,53045
43064,53065
43082,53042
43084,53041
43076,53052
43078,53048
43066,53073
43077,53063
43063,53051
43084,53072
43091,53068
43081,53076
43093,53080
43091,53087
43090,53076
43078,53083
43092,53074
43081,53087
43088,53077
43078,53078
43074,53064
43083,53084
43090,53089
43100,53084
43077,53090
43094,53094
43078,53089
43091,53095
43107,53108
43091,53103
43096,53114
43108,53131
43099,53129
43114,53142
43123,53146
43102,53161
43126,53147
43130,53159
43119,53173
43136,53184
43135,53185
43126,53204
43134,53210
43141,53210
43152,53216
43151,53212
43140,53206
43147,53241
43149,53241
43151,53238
43165,53260
43164,53267
43157,53268
43157,53291
43160,53285
43168,53273
43180,53293
43187,53307
43170,53308
43190,53328
43197,53339
43174,53334
43187,53338
43193,53364
43197,53369
43205,53377
43233,53371
43214,53373
43197,53422
43214,53397
43237,53413
43228,53437
43218,53422
43235,53435
43238,53442
43235,53455
43239,53454
43240,53474
43258,53469
43243,53489
43253,53476
43256,53492
43266,53504
43263,53508
43261,53525
43266,53540
43274,53541
43289,53542
43283,53561
43278,53574
43270,53579
43288,53571
43293,53572
43284,53564
43281,53543
43260,53494
43231,53459
43236,53433
43215,53401
43206,53354
43205,53344
43211,53324
43200,53307
43203,53280
43179,53283
43206,53291
43192,53287
43193,53273
43205,53279
43202,53290
43197,53297
43202,53295
43202,53312
43198,53305
43206,53304
43199,53308
43194,53292
43192,53287
43205,53264
43201,53280
43205,53278
43188,53291
43204,53278
43219,53269
43210,53299
43196,53297
43201,53291
43206,53296
43190,53286
43195,53291
43209,53283
43204,53289
43201,53272
43185,53279
43196,53266
43210,53267
43190,53273
43198,53278
43185,53272
43191,53291
43201,53285
43207,53277
43206,53280
43204,53294
43205,53287
43212,53289
43198,53315
43203,53315
43211,53317
43222,53317
43214,53313
43218,53332
43221,53324
43215,53342
43219,53348
43221,53351
43229,53339
43231,53356
43236,53358
43237,53380
43233,53326
43244,53373
43235,53386
43238,53373
43237,53384
43233,53379
43237,53401
43239,53393
43251,53424
43247,53424
43278,53429
43250,53429
43248,53441
43251,53452
43259,53449
43269,53496
43267,53480
43264,53459
43255,53443
43266,53461
43263,53464
43272,53479
43279,53491
43275,53492
43272,53475
43262,53450
43254,53433
43252,53397
43257,53369
43211,53338
43211,53298
43169,53278
43233,53326
43176,53243
43172,53230
43178,53219
43188,53224
43177,53222
43180,53232
43178,53221
43187,53221
43192,53211
43200,53211
43191,53209
43177,53192
43192,53206
43193,53194
43183,53185
43185,53187
43166,53174
43182,53167
43167,53169
43170,53176
43147,53175
43152,53182
43168,53183
43170,53181
43167,53195
43163,53181
43179,53180
43191,53190
43154,53190
43175,53179
43171,53181
43164,53176
43152,53167
43167,53187
43160,53174
43171,53181
43175,53182
43177,53163
43167,53166
43162,53188
43167,53189
43167,53192
43174,53191
43170,53193
43185,53192
43180,53198
43187,53208
43181,53200
43181,53211
43185,53231
43195,53238
43194,53237
43187,53254
43201,53265
43197,53235
43199,53259
43189,53259
43190,53265
43197,53277
43202,53280
43203,53283
43214,53286
43204,53296
43207,53298
43221,53291
43212,53310
43218,53309
43216,53333
43231,53340
43230,53337
43225,53352
43224,53348
43229,53363
43219,53364
43242,53354
43238,53363
43249,53391
43242,53374
43260,53385
43236,53396
43239,53421
43247,53396
43263,53424
43254,53417
43273,53442
43262,53434
43271,53458
43274,53451
43278,53456
43269,53475
43288,53476
43272,53459
43254,53459
43267,53425
43246,53396
43244,53359
43220,53325
43214,53320
43197,53270
43205,53254
43199,53250
43191,53229
43190,53200
43189,53206
43177,53196
43179,53212
43206,53218
43201,53197
43180,53200
43199,53219
43191,53192
43183,53213
43186,53199
43195,53197
43191,53187
43182,53183
43179,53179
43170,53159
43185,53179
43182,53162
43182,53180
43186,53162
43195,53176
43185,53180
43186,53184
43188,53192
43174,53201
43204,53211
43187,53206
43206,53207
43200,53209
43194,53198
43187,53197
43192,53199
43204,53191
43194,53201
43196,53201
43194,53207
43200,53208
43200,53216
43194,53221
43193,53223
43196,53231
43201,53210
43209,53238
43213,53237
43207,53230
43218,53255
43207,53251
43213,53259
43221,53258
43223,53263
43210,53286
43221,53277
43228,53289
43229,53293
43222,53287
43235,53305
43241,53311
43233,53321
43228,53317
43242,53329
43230,53337
43237,53339
43264,53363
43241,53353
43242,53357
43245,53354
43259,53362
43268,53393
43251,53396
43256,53383
43270,53395
43257,53400
43261,53414
43277,53416
43294,53425
43271,53433
43282,53436
43300,53443
43269,53448
43297,53461
43296,53470
43295,53463
43299,53480
43287,53479
43311,53502
43300,53494
43297,53506
43313,53528
43322,53517
43313,53530
43307,53534
43316,53550
43326,53545
43320,53556
43331,53574
43330,53576
43328,53593
43331,53592
43335,53586
43334,53602
43326,53603
43328,53623
43351,53641
43354,53614
43382,53647
43357,53636
43370,53624
43353,53625
43347,53596
43323,53567
43320,53542
43304,53516
43300,53480
43289,53446
43277,53426
43262,53417
43282,53413
43257,53395
43261,53402
43276,53403
43269,53399
43290,53397
43286,53409
43277,53411
43282,53420
43276,53384
43276,53424
43288,53408
43271,53433
43281,53401
43293,53419
43292,53414
43280,53401
43273,53398
43276,53400
43288,53412
43286,53427
43277,53412
43274,53407
43294,53429
43276,53453
43304,53439
43273,53392
43274,53396
43269,53418
43271,53400
43275,53410
43255,53409
43285,53412
43278,53413
43273,53410
43287,53413
43311,53403
43287,53419
43286,53430
43253,53441
43255,53435
43264,53447
43276,53436
43290,53440
43285,53457
43294,53452
43293,53460
43297,53460
43290,53471
43304,53478
43293,53469
43307,53499
43294,53482
43312,53485
43297,53492
43306,53505
43298,53498
43327,53508
43305,53521
43311,53522
43314,53521
43305,53523
43316,53528
43316,53536
43314,53542
43319,53547
43324,53546
43343,53560
43326,53563
43315,53574
43340,53587
43321,53595
43331,53571
43327,53588
43336,53589
43330,53598
43327,53594
43326,53608
43360,53624
43328,53624
43358,53622
43326,53627
43355,53617
43339,53604
43322,53587
43309,53566
43304,53529
43295,53479
43264,53460
43281,53437
43273,53417
43245,53394
43252,53388
43256,53377
43269,53390
43267,53387
43261,53366
43265,53376
43238,53386
43256,53364
43274,53377
43254,53367
43247,53370
43260,53367
43249,53343
43238,53357
43254,53332
43239,53355
43233,53327
43246,53324
43255,53331
43231,53330
43243,53332
43254,53331
43253,53347
43249,53342
43249,53333
43263,53347
43251,53344
43256,53356
43242,53358
43224,53341
43250,53350
43241,53353
43246,53344
43237,53344
43238,53341
43237,53342
43245,53350
43244,53347
43253,53338
43254,53342
43252,53342
43247,53363
43250,53356
43259,53350
43254,53369
43234,53372
43251,53367
43262,53374
43262,53384
43264,53390
43266,53405
43256,53398
43272,53404
43254,53421
43272,53419
43278,53414
43264,53425
43285,53440
43265,53446
43272,53443
43280,53447
43282,53454
43286,53464
43284,53456
43300,53467
43287,53481
43291,53476
43296,53479
43276,53477
43297,53500
43296,53494
43286,53502
43286,53504
43312,53518
43309,53494
43313,53520
43300,53534
43319,53535
43321,53569
43315,53549
43316,53561
43324,53565
43334,53573
43327,53577
43324,53599
43319,53607
43342,53602
43339,53627
43337,53625
43338,53631
43354,53646
43346,53652
43346,53642
43358,53640
43352,53651
43359,53668
43363,53682
43347,53676
43363,53672
43371,53688
43369,53706
43350,53707
43372,53711
43375,53715
43387,53725
43381,53717
43392,53740
43379,53742
43379,53767
43382,53751
43391,53722
43360,53688
43347,53644
43335,53607
43311,53592
43320,53550
43294,53548
43297,53519
43290,53474
43301,53478
43284,53481
43286,53481
43294,53474
43279,53492
43304,53485
43312,53491
43304,53493
43300,53508
43308,53488
43292,53504
43294,53490
43291,53486
43298,53481
43297,53457
43300,53464
43280,53450
43282,53439
43287,53450
43287,53452
43288,53449
43289,53445
43302,53450
43291,53451
43298,53449
43292,53461
43292,53450
43291,53475
43298,53466
43287,53451
43291,53456
43291,53458
43287,53458
43287,53454
43287,53433
43284,53459
43285,53451
43280,53443
43281,53452
43293,53449
43289,53446
43284,53465
43288,53457
43300,53465
43290,53470
43292,53478
43301,53490
43315,53499
43315,53500
43318,53504
43304,53497
43316,53511
43310,53514
43321,53551
43318,53534
43311,53552
43317,53538
43334,53554
43322,53551
43327,53554
43345,53569
43329,53572
43334,53566
43324,53582
43325,53573
43345,53591
43341,53591
43349,53595
43324,53603
43334,53590
43332,53629
43349,53627
43346,53643
43347,53602
43356,53607
43341,53612
43349,53634
43351,53641
43366,53642
43357,53659
43369,53669
43361,53683
43362,53689
43390,53687
43389,53673
43391,53690
43360,53688
43372,53714
43353,53717
43365,53708
43373,53696
43366,53666
43357,53637
43343,53630
43319,53572
43322,53549
43302,53529
43275,53492
43296,53474
43289,53470
43278,53449
43279,53431
43286,53446
43289,53441
43278,53418
43273,53434
43292,53445
43274,53456
43285,53446
43282,53441
43279,53450
43281,53448
43262,53435
43258,53417
43265,53444
43270,53421
43261,53416
43260,53408
43278,53415
43269,53424
43266,53426
43264,53426
43273,53427
43272,53439
43282,53439
43269,53442
43276,53440
43279,53432
43264,53426
43276,53426
43257,53421
43270,53427
43256,53421
43266,53419
43268,53427
43264,53403
43274,53419
43257,53429
43262,53420
43276,53433
43266,53433
43254,53434
43282,53447
43281,53452
43257,53454
43276,53469
43279,53463
43267,53465
43281,53477
43271,53484
43261,53481
43266,53483
43290,53490
43262,53488
43280,53484
43297,53490
43284,53513
43269,53508
43268,53494
43289,53522
43288,53517
43298,53517
43283,53512
43275,53546
43295,53530
43306,53529
43273,53530
43307,53566
43297,53552
43315,53554
43305,53562
43289,53571
43316,53577
43316,53575
43323,53600
43300,53580
43311,53565
43296,53555
43291,53550
43289,53517
43273,53491
43254,53461
43251,53418
43238,53418
43224,53378
43220,53361
43232,53350
43228,53342
43231,53331
43229,53325
43215,53336
43208,53324
43205,53308
43221,53329
43215,53326
43210,53326
43212,53320
43218,53330
43227,53303
43217,53301
43215,53296
43210,53273
43198,53290
43194,53255
43188,53269
43183,53266
43192,53273
43184,53286
43190,53288
43197,53290
43207,53285
43182,53294
43202,53303
43182,53286
43190,53293
43199,53291
43193,53285
43191,53288
43186,53275
43195,53281
43187,53297
43186,53289
43186,53273
43195,53281
43188,53272
43198,53293
43195,53300
43193,53282
43192,53283
43183,53307
43195,53297
43200,53295
43206,53322
43193,53329
43210,53324
43203,53317
43197,53307
43214,53347
43211,53346
43227,53352
43229,53345
43217,53372
43219,53362
43224,53374
43234,53373
43224,53385
43226,53392
43221,53387
43235,53386
43230,53365
43236,53396
43227,53402
43238,53410
43246,53418
43226,53428
43238,53416
43244,53434
43256,53439
43258,53453
43256,53446
43252,53472
43244,53485
43270,53479
43276,53485
43272,53482
43265,53511
43268,53515
43279,53524
43284,53523
43282,53517
43281,53537
43293,53543
43285,53553
43293,53546
43288,53566
43295,53565
43312,53585
43311,53595
43291,53585
43310,53596
43309,53611
43325,53620
43328,53620
43323,53626
43319,53626
43326,53644
43339,53644
43340,53664
43338,53656
43331,53681
43338,53676
43342,53679
43341,53694
43354,53718
43350,53706
43352,53709
43350,53713
43343,53706
43336,53674
43311,53632
43315,53591
43302,53559
43279,53530
43266,53507
43263,53479
43272,53474
43259,53473
43254,53461
43270,53503
43259,53465
43268,53457
43273,53477
43259,53477
43280,53454
43277,53489
43275,53497
43282,53517
43276,53501
43277,53488
43275,53504
43270,53493
43281,53484
43265,53481
43302,53485
43265,53477
43274,53484
43280,53481
43251,53505
43263,53532
43273,53492
43285,53485
43280,53494
43303,53507
43272,53514
43276,53508
43292,53495
43286,53496
43278,53525
43283,53518
43297,53501
43308,53500
43309,53508
43287,53505
43266,53518
43255,53513
43269,53523
43284,53531
43288,53528
43291,53532
43289,53552
43305,53559
43286,53559
43289,53567
43285,53573
43303,53591
43295,53583
43304,53583
43316,53596
43301,53597
43308,53597
43292,53612
43319,53610
43319,53611
43326,53615
43330,53631
43321,53615
43323,53637
43306,53654
43324,53666
43336,53654
43339,53655
43338,53661
43315,53660
43347,53677
43322,53672
43340,53677
43331,53693
43337,53669
43340,53703
43353,53696
43347,53705
43337,53713
43342,53724
43351,53732
43357,53732
43342,53745
43354,53741
43348,53745
43354,53716
43351,53700
43326,53685
43321,53673
43311,53631
43291,53612
43296,53596
43276,53567
43279,53560
43272,53557
43280,53547
43285,53547
43285,53545
43279,53547
43288,53568
43280,53563
43296,53583
43306,53561
43302,53581
43308,53578
43296,53579
43294,53572
43294,53562
43274,53576
43273,53576
43284,53552
43283,53547
43287,53554
43270,53562
43285,53549
43287,53566
43282,53575
43281,53568
43286,53575
43294,53596
43291,53577
43281,53588
43292,53582
43279,53582
43283,53593
43290,53583
43289,53576
43304,53592
43294,53581
43292,53596
43295,53594
43288,53598
43302,53596
43297,53595
43299,53612
43280,53608
43308,53615
43300,53621
43291,53626
43302,53621
43315,53627
43298,53633
43316,53635
43312,53637
43310,53657
43310,53659
43308,53649
43304,53666
43323,53664
43335,53681
43314,53682
43324,53676
43336,53677
43317,53693
43333,53706
43320,53717
43332,53704
43329,53718
43330,53719
43334,53727
43339,53738
43332,53743
43333,53748
43334,53753
43354,53757
43341,53746
43337,53750
43343,53763
43351,53772
43355,53770
43359,53782
43350,53777
43357,53795
43361,53791
43358,53792
43354,53799
43373,53813
43362,53825
43372,53842
43363,53824
43366,53846
43369,53836
43362,53842
43382,53847
43371,53861
43368,53869
43376,53859
43386,53874
43375,53850
43383,53887
43402,53903
43385,53896
43407,53901
43388,53902
43407,53909
43403,53904
43397,53926
43402,53937
43399,53937
43423,53936
43402,53959
43411,53944
43412,53954
43414,53956
43405,53959
43393,53942
43374,53888
43382,53866
43351,53849
43363,53822
43339,53779
43338,53779
43342,53774
43320,53755
43341,53776
43343,53757
43341,53768
43347,53774
43351,53777
43346,53792
43346,53805
43355,53798
43368,53808
43351,53807
43358,53818
43350,53804
43365,53794
43358,53788
43333,53786
43351,53791
43348,53779
43341,53770
43359,53788
43338,53773
43352,53786
43351,53788
43346,53793
43340,53813
43359,53800
43350,53815
43361,53807
43359,53816
43349,53803
43364,53818
43349,53811
43357,53807
43347,53791
43353,53817
43359,53812
43351,53801
43350,53809
43355,53815
43358,53813
43364,53821
43350,53819
43358,53825
43356,53845
43367,53841
43362,53853
43368,53848
43360,53845
43378,53861
43384,53857
43370,53865
43372,53875
43380,53852
43369,53875
43386,53880
43381,53893
43384,53882
43397,53902
43379,53893
43381,53907
43380,53915
43399,53902
43428,53921
43374,53911
43394,53906
43390,53925
43397,53926
43395,53961
43406,53974
43397,53953
43406,53925
43408,53951
43404,53933
43409,53952
43400,53955
43405,53964
43414,53970
43409,53977
43407,53985
43426,53989
43436,53995
43413,53986
43422,53993
43389,54012
43404,54027
43384,54015
43418,54021
43430,54024
43440,54023
43436,54027
43430,54035
43436,54042
43436,54060
43438,54058
43432,54060
43440,54069
43431,54059
43435,54059
43434,54071
43432,54083
43449,54078
43422,54095
43443,54090
43447,54083
43433,54078
43428,54040
43417,54023
43406,53977
43397,53961
43386,53935
43373,53917
43372,53887
43376,53897
43368,53884
43363,53880
43353,53886
43361,53887
43374,53892
43375,53897
43367,53901
43375,53900
43366,53911
43369,53920
43381,53897
43367,53919
43363,53900
43352,53909
43356,53898
43355,53887
43355,53876
43352,53882
43355,53899
43365,53893
43375,53879
43364,53893
43370,53886
43361,53882
43371,53898
43357,53895
43359,53901
43358,53904
43359,53895
43346,53885
43347,53869
43346,53886
43349,53877
43342,53885
43350,53884
43348,53889
43358,53875
43346,53874
43344,53874
43351,53886
43354,53890
43355,53883
43356,53893
43345,53899
43357,53896
43355,53917
43353,53915
43345,53902
43354,53921
43361,53919
43368,53925
43363,53919
43361,53922
43352,53934
43338,53935
43353,53941
43361,53929
43355,53940
43366,53940
43364,53938
43359,53942
43372,53951
43362,53957
43357,53957
43377,53965
43367,53966
43373,53963
43380,53959
43374,53975
43352,53975
43374,53982
43366,53976
43389,53982
43389,53995
43380,53990
43372,54014
43378,54002
43391,53996
43384,54000
43381,53997
43378,54007
43385,54029
43395,54014
43395,54020
43395,54027
43406,54043
43379,54026
43401,54026
43395,54034
43389,54010
43379,54020
43360,53996
43359,53957
43344,53926
43328,53892
43326,53874
43320,53854
43302,53844
43309,53835
43304,53815
43304,53806
43315,53812
43311,53814
43304,53813
43307,53823
43304,53823
43294,53822
43312,53819
43301,53813
43316,53825
43284,53812
43278,53786
43290,53775
43299,53760
43295,53766
43282,53770
43287,53754
43287,53749
43276,53750
43276,53746
43275,53762
43279,53755
43278,53776
43277,53758
43286,53740
43271,53756
43290,53754
43265,53756
43277,53755
43278,53757
43283,53751
43291,53740
43272,53740
43271,53738
43269,53741
43278,53738
43295,53727
43261,53732
43276,53726
43283,53749
43275,53747
43294,53744
43268,53732
43269,53761
43283,53757
43270,53755
43287,53764
43276,53753
43283,53763
43281,53769
43281,53777
43285,53765
43279,53774
43285,53781
43280,53769
43284,53781
43280,53799
43285,53797
43291,53805
43291,53793
43294,53791
43298,53797
43269,53807
43284,53800
43295,53809
43300,53810
43301,53818
43293,53818
43293,53828
43292,53812
43299,53842
43315,53834
43306,53840
43302,53842
43310,53842
43318,53838
43318,53858
43314,53848
43307,53886
43311,53868
43321,53863
43328,53873
43316,53895
43325,53892
43312,53901
43325,53900
43332,53905
43320,53911
43333,53924
43327,53914
43332,53922
43336,53925
43340,53924
43339,53947
43344,53956
43340,53939
43350,53960
43347,53952
43352,53966
43351,53947
43343,53958
43355,53974
43351,53980
43354,54002
43352,54001
43365,54002
43367,53999
43368,53999
43370,54013
43340,54019
43383,54007
43357,54003
43325,53961
43334,53953
43308,53860
43297,53797
43291,53779
43287,53798
43282,53776
43264,53777
43278,53769
43278,53774
43281,53771
43279,53782
43303,53776
43318,53796
43314,53777
43279,53794
43285,53795
43347,53952
43282,53788
43271,53786
43289,53771
43280,53767
43261,53756
43282,53774
43281,53747
43258,53754
43288,53750
43279,53757
43296,53749
43296,53777
43281,53760
43290,53756
43285,53785
43286,53778
43292,53772
43291,53784
43283,53771
43278,53786
43277,53771
43274,53777
43289,53768
43285,53769
43266,53761
43280,53755
43277,53743
43278,53735
43284,53754
43280,53764
43268,53762
43286,53756
43290,53780
43287,53774
43288,53785
43304,53791
43305,53782
43288,53809
43283,53789
43306,53808
43299,53807
43294,53811
43293,53806
43314,53825
43302,53824
43318,53832
43287,53822
43292,53843
43307,53827
43313,53837
43311,53839
43316,53846
43315,53851
43306,53850
43327,53867
43318,53844
43320,53870
43333,53880
43326,53884
43313,53865
43335,53883
43332,53885
43324,53906
43332,53896
43326,53903
43335,53912
43336,53908
43333,53907
43339,53932
43336,53925
43352,53930
43333,53940
43349,53937
43344,53957
43347,53943
43350,53959
43349,53955
43352,53957
43342,53950
43359,53983
43359,53970
43355,53979
43349,53980
43370,53999
43370,53983
43356,53997
43358,53985
43362,53979
43328,53940
43327,53924
43312,53900
43322,53866
43305,53850
43299,53837
43299,53814
43279,53817
43289,53794
43286,53794
43292,53802
43297,53798
43300,53812
43306,53815
43283,53828
43289,53837
43305,53840
43305,53830
43312,53837
43303,53836
43295,53834
43285,53822
43293,53814
43301,53799
43293,53807
43283,53804
43291,53795
43284,53794
43289,53823
43308,53812
43294,53827
43302,53826
43301,53815
43300,53833
43297,53851
43320,53838
43296,53829
43290,53836
43293,53830
43296,53837
43301,53828
43304,53823
43289,53814
43292,53823
43300,53839
43317,53826
43291,53824
43299,53841
43310,53830
43304,53835
43304,53853
43311,53853
43298,53851
43318,53864
43302,53870
43312,53872
43306,53877
43302,53871
43308,53870
43322,53866
43320,53885
43315,53892
43311,53905
43328,53903
43319,53901
43313,53905
43334,53899
43333,53908
43317,53920
43317,53930
43331,53926
43328,53930
43339,53928
43327,53928
43335,53931
43332,53940
43329,53962
43329,53942
43328,53964
43341,53959
43335,53969
43337,53968
43340,53973
43335,53975
43347,53990
43352,53987
43346,54003
43353,53995
43353,54008
43367,54006
43352,54011
43346,54010
43347,54005
43364,54021
43370,54012
43375,54032
43361,54028
43365,54045
43349,54039
43371,54049
43374,54051
43364,54056
43375,54060
43379,54061
43366,54083
43370,54077
43378,54069
43391,54072
43389,54084
43374,54098
43374,54101
43390,54091
43391,54120
43374,54094
43366,54099
43359,54060
43336,54031
43332,54018
43319,53976
43326,53944
43316,53933
43315,53910
43308,53895
43315,53893
43312,53878
43295,53878
43301,53878
43323,53899
43308,53905
43294,53893
43312,53904
43310,53915
43320,53911
43308,53906
43302,53904
43294,53905
43316,53901
43322,53893
43310,53886
43309,53877
43324,53868
43312,53872
43314,53884
43296,53875
43294,53879
43314,53870
43307,53878
43307,53897
43317,53885
43312,53894
43321,53883
43313,53916
43328,53914
43309,53913
43304,53872
43310,53865
43310,53844
43303,53869
43317,53887
43314,53894
43298,53883
43313,53871
43317,53877
43304,53872
43337,53877
43321,53893
43336,53892
43318,53898
43276,53895
43322,53893
43313,53890
43307,53894
43324,53916
43317,53927
43331,53931
43325,53931
43328,53922
43323,53930
43338,53942
43351,53949
43329,53947
43339,53949
43339,53951
43331,53960
43321,53960
43352,53971
43346,53949
43347,53970
43346,53978
43342,53987
43341,53971
43366,53963
43361,53981
43336,53986
43353,53980
43356,53991
43358,53997
43348,54008
43350,53987
43362,54010
43353,54008
43359,54012
43369,54019
43369,54029
43367,54036
43359,54026
43363,54037
43374,54030
43370,54045
43381,54049
43365,54046
43395,54059
43383,54056
43394,54069
43392,54065
43388,54068
43393,54075
43387,54078
43387,54078
43390,54077
43391,54087
43386,54100
43397,54089
43400,54090
43388,54127
43384,54118
43393,54112
43391,54125
43406,54114
43379,54105
43392,54086
43382,54055
43349,54028
43340,53990
43343,53961
43322,53937
43328,53917
43310,53890
43305,53885
43310,53885
43297,53874
43313,53885
43316,53869
43314,53884
43330,53888
43325,53879
43329,53889
43321,53891
43330,53901
43319,53904
43328,53894
43328,53893
43336,53867
43311,53891
43311,53879
43309,53879
43311,53872
43304,53865
43321,53880
43319,53866
43321,53888
43305,53874
43317,53868
43305,53872
43316,53880
43305,53868
43330,53886
43315,53871
43315,53858
43331,53867
43309,53855
43298,53854
43307,53846
43314,53849
43308,53841
43300,53852
43313,53859
43304,53845
43319,53848
43309,53851
43307,53852
43313,53847
43319,53845
43304,53860
43328,53846
43317,53865
43308,53869
43312,53850
43323,53881
43312,53872
43312,53881
43309,53882
43317,53883
43321,53885
43319,53865
43305,53884
43323,53884
43321,53889
43319,53900
43327,53907
43307,53904
43332,53898
43323,53896
43322,53901
43314,53892
43318,53902
43325,53903
43327,53913
43321,53920
43317,53916
43338,53920
43325,53910
43343,53930
43327,53910
43342,53930
43339,53929
43332,53931
43336,53943
43340,53938
43324,53942
43337,53947
43359,53934
43339,53945
43353,53970
43350,53963
43349,53964
43349,53968
43353,53975
43361,53972
43338,53966
43345,53964
43348,53972
43350,53985
43354,53999
43352,53976
43342,53971
43332,53948
43331,53896
43308,53871
43292,53832
43284,53829
43274,53795
43261,53769
43254,53725
43262,53728
43244,53721
43267,53707
43255,53690
43246,53699
43242,53708
43256,53711
43261,53729
43257,53704
43250,53688
43253,53692
43241,53694
43236,53677
43248,53672
43222,53670
43210,53665
43234,53649
43216,53643
43223,53634
43221,53625
43239,53640
43237,53628
43226,53621
43215,53636
43223,53640
43233,53647
43228,53639
43234,53643
43221,53647
43226,53642
43229,53630
43217,53619
43223,53624
43244,53618
43219,53604
43218,53613
43211,53626
43220,53611
43218,53612
43227,53600
43216,53617
43223,53607
43216,53598
43217,53615
43224,53623
43225,53617
43221,53611
43210,53585
43226,53624
43228,53628
43224,53628
43221,53638
43224,53635
43217,53639
43230,53632
43234,53651
43225,53657
43255,53643
43219,53643
43228,53646
43236,53653
43223,53668
43229,53630
43233,53678
43229,53692
43247,53699
43234,53687
43246,53650
43240,53663
43245,53681
43256,53690
43227,53696
43239,53708
43229,53688
43254,53712
43272,53695
43239,53713
43277,53719
43246,53732
43222,53739
43231,53752
43255,53755
43267,53746
43271,53752
43268,53743
43274,53761
43273,53765
43273,53770
43260,53795
43266,53774
43281,53779
43273,53787
43286,53804
43283,53794
43294,53805
43298,53798
43287,53816
43313,53830
43292,53829
43293,53830
43298,53838
43298,53843
43312,53860
43308,53844
43313,53854
43309,53860
43326,53870
43325,53872
43321,53888
43320,53878
43313,53897
43328,53902
43327,53896
43316,53894
43308,53856
43290,53832
43279,53781
43254,53750
43244,53708
43239,53676
43225,53653
43222,53642
43232,53633
43232,53623
43225,53616
43207,53604
43229,53603
43228,53624
43223,53616
43236,53614
43246,53638
43230,53604
43233,53618
43229,53628
43222,53631
43222,53627
43220,53601
43220,53606
43204,53585
43211,53596
43225,53572
43211,53573
43227,53579
43217,53578
43206,53583
43220,53592
43207,53567
43229,53581
43208,53588
43214,53598
43220,53603
43222,53576
43228,53580
43221,53575
43214,53574
43216,53584
43220,53555
43201,53576
43203,53575
43220,53568
43198,53564
43214,53569
43222,53580
43219,53567
43206,53552
43212,53570
43209,53569
43221,53573
43231,53579
43213,53584
43216,53588
43212,53587
43234,53594
43204,53602
43225,53610
43231,53602
43229,53611
43218,53624
43222,53619
43214,53623
43239,53631
43250,53623
43246,53638
43234,53645
43234,53623
43237,53646
43252,53650
43241,53641
43241,53646
43246,53658
43258,53657
43253,53665
43241,53676
43251,53675
43243,53677
43256,53692
43243,53689
43250,53679
43245,53691
43245,53693
43258,53689
43253,53703
43262,53718
43256,53713
43258,53707
43268,53723
43255,53713
43256,53734
43278,53729
43269,53736
43251,53734
43275,53740
43280,53755
43291,53760
43289,53763
43295,53768
43275,53780
43286,53778
43272,53785
43288,53772
43293,53778
43300,53795
43281,53779
43284,53758
43258,53739
43249,53691
43230,53659
43223,53629
43227,53604
43198,53584
43199,53564
43200,53530
43200,53534
43179,53518
43166,53514
43185,53513
43194,53509
43194,53538
43195,53527
43198,53530
43190,53535
43190,53542
43195,53517
43188,53531
43182,53520
43192,53515
43185,53506
43180,53499
43178,53494
43183,53493
43172,53496
43185,53476
43162,53480
43168,53497
43177,53500
43171,53484
43162,53508
43187,53505
43179,53488
43181,53499
43176,53485
43180,53495
43174,53494
43165,53490
43151,53486
43158,53492
43171,53490
43181,53477
43183,53474
43174,53485
43178,53472
43166,53478
43177,53488
43181,53488
43174,53487
43175,53501
43175,53501
43182,53488
43184,53499
43181,53525
43171,53509
43182,53533
43175,53529
43184,53518
43186,53524
43173,53538
43177,53532
43193,53532
43197,53538
43197,53530
43191,53559
43191,53569
43193,53557
43208,53569
43199,53548
43196,53567
43193,53583
43205,53567
43188,53575
43197,53584
43207,53592
43205,53588
43200,53617
43198,53601
43208,53592
43217,53590
43200,53607
43204,53607
43212,53612
43216,53622
43219,53627
43216,53622
43220,53624
43219,53638
43209,53635
43219,53650
43227,53653
43198,53657
43229,53665
43234,53674
43242,53705
43244,53710
43251,53664
43242,53665
43246,53684
43228,53691
43268,53707
43247,53713
43254,53720
43252,53717
43245,53720
43253,53732
43278,53735
43302,53751
43265,53750
43221,53757
43274,53758
43257,53782
43263,53770
43274,53757
43258,53756
43248,53730
43254,53702
43230,53654
43222,53625
43199,53599
43194,53564
43194,53532
43177,53520
43181,53481
43169,53487
43164,53479
43173,53472
43170,53484
43159,53472
43174,53473
43159,53471
43171,53478
43160,53470
43169,53474
43185,53467
43172,53473
43164,53458
43164,53451
43168,53433
43159,53425
43153,53420
43163,53426
43164,53431
43140,53424
43145,53399
43126,53402
43146,53406
43153,53423
43150,53414
43164,53422
43143,53426
43157,53419
43147,53428
43146,53423
43150,53435
43167,53422
43144,53421
43148,53423
43142,53426
43139,53414
43130,53415
43158,53418
43160,53418
43154,53423
43171,53421
43147,53433
43161,53428
43166,53441
43163,53446
43168,53453
43171,53446
43160,53439
43158,53455
43176,53457
43168,53464
43178,53448
43167,53464
43170,53474
43181,53488
43191,53492
43190,53499
43180,53499
43174,53491
43166,53505
43187,53494
43186,53508
43184,53516
43184,53505
43197,53504
43176,53512
43193,53523
43200,53517
43199,53520
43187,53534
43197,53534
43189,53538
43190,53539
43196,53544
43210,53549
43203,53568
43210,53563
43226,53573
43201,53579
43205,53562
43216,53586
43221,53588
43215,53585
43234,53589
43231,53583
43218,53600
43217,53599
43229,53609
43229,53613
43234,53622
43240,53620
43239,53615
43243,53626
43240,53638
43242,53633
43252,53651
43251,53648
43240,53652
43243,53661
43249,53666
43260,53679
43245,53682
43262,53676
43277,53705
43261,53716
43261,53693
43267,53700
43256,53712
43270,53687
43249,53667
43234,53642
43213,53588
43220,53553
43208,53510
43185,53496
43175,53465
43174,53461
43163,53429
43170,53423
43156,53391
43155,53406
43173,53410
43167,53401
43171,53414
43167,53433
43177,53416
43179,53432
43158,53408
43157,53421
43164,53423
43168,53429
43154,53404
43162,53399
43150,53419
43147,53392
43149,53403
43153,53396
43147,53408
43160,53400
43147,53402
43153,53399
43171,53396
43134,53417
43159,53401
43146,53390
43150,53398
43137,53391
43141,53389
43160,53386
43150,53399
43144,53378
43137,53382
43138,53375
43141,53376
43131,53370
43153,53374
43139,53371
43138,53379
43131,53380
43142,53387
43150,53387
43151,53398
43156,53390
43152,53396
43155,53408
43137,53410
43160,53419
43149,53417
43153,53414
43155,53427
43165,53416
43161,53413
43150,53418
43150,53438
43154,53455
43157,53449
43153,53430
43161,53451
43172,53453
43156,53443
43176,53452
43168,53448
43154,53460
43164,53470
43173,53476
43185,53474
43180,53470
43174,53467
43172,53468
43182,53493
43197,53489
43183,53482
43181,53507
43186,53509
43193,53515
43183,53505
43176,53504
43171,53522
43199,53524
43201,53520
43201,53536
43201,53524
43199,53545
43189,53553
43188,53539
43197,53579
43195,53568
43219,53599
43206,53579
43225,53578
43202,53586
43201,53586
43218,53569
43211,53589
43202,53587
43202,53575
43192,53542
43191,53509
43156,53453
43151,53406
43135,53391
43129,53350
43126,53332
43122,53309
43113,53279
43114,53284
43103,53286
43112,53290
43086,53236
43097,53250
43104,53246
43106,53279
43097,53262
43107,53277
43104,53275
43097,53258
43091,53253
43096,53222
43104,53233
43099,53227
43104,53214
43078,53200
43202,53586
43054,53203
43065,53204
43064,53181
43071,53206
43078,53208
43095,53209
43070,53196
43084,53214
43063,53203
43074,53214
43063,53201
43077,53211
43087,53196
43067,53195
43077,53197
43052,53179
43069,53181
43061,53192
43068,53174
43059,53174
43066,53185
43064,53187
43065,53171
43072,53190
43064,53188
43065,53205
43063,53178
43055,53215
43067,53201
43076,53194
43069,53207
43075,53202
43079,53199
43085,53228
43095,53228
43075,53226
43083,53223
43084,53229
43077,53235
43084,53235
43090,53237
43080,53245
43079,53257
43086,53258
43085,53260
43093,53263
43106,53283
43092,53279
43098,53282
43117,53300
43109,53291
43088,53284
43098,53291
43109,53295
43102,53309
43127,53318
43111,53322
43118,53323
43132,53322
43117,53332
43109,53342
43132,53367
43132,53359
43138,53357
43133,53356
43140,53377
43133,53364
43139,53382
43155,53390
43135,53393
43142,53397
43151,53411
43161,53406
43146,53408
43151,53420
43163,53431
43142,53437
43157,53443
43168,53441
43183,53453
43166,53457
43187,53480
43179,53485
43170,53494
43188,53494
43188,53475
43177,53504
43182,53503
43170,53501
43195,53505
43208,53522
43190,53533
43210,53540
43199,53544
43207,53538
43192,53524
43185,53496
43175,53467
43147,53423
43144,53384
43145,53333
43127,53325
43103,53287
43108,53264
43096,53250
43098,53234
43102,53227
43093,53214
43086,53240
43097,53248
43085,53232
43104,53235
43102,53242
43093,53246
43099,53259
43107,53244
43098,53243
43105,53248
43104,53231
43069,53232
43080,53211
43087,53212
43084,53204
43077,53227
43080,53203
43091,53198
43084,53204
43091,53216
43098,53215
43096,53218
43097,53218
43100,53219
43105,53223
43094,53214
43098,53224
43088,53212
43099,53215
43080,53211
43086,53223
43083,53198
43088,53212
43072,53203
43075,53193
43087,53182
43077,53199
43078,53207
43092,53202
43099,53195
43068,53203
43086,53215
43097,53222
43092,53230
43099,53227
43102,53232
43089,53235
43098,53249
43095,53246
43097,53244
43113,53274
43110,53253
43107,53275
43125,53278
43125,53282
43113,53280
43126,53280
43108,53278
43113,53288
43112,53294
43121,53293
43118,53313
43121,53311
43108,53318
43118,53316
43117,53316
43123,53315
43130,53333
43141,53326
43142,53340
43118,53327
43128,53339
43142,53351
43126,53368
43134,53365
43129,53366
43131,53363
43149,53368
43145,53373
43147,53379
43153,53385
43156,53390
43145,53397
43155,53398
43151,53408
43154,53410
43170,53412
43144,53425
43144,53429
43156,53418
43164,53430
43176,53430
43158,53429
43165,53445
43169,53457
43184,53429
43153,53421
43144,53380
43127,53344
43110,53318
43111,53283
43091,53238
43086,53218
43077,53195
43075,53178
43082,53183
43067,53157
43078,53169
43080,53168
43062,53155
43063,53170
43088,53182
43070,53168
43063,53182
43068,53157
43068,53177
43072,53149
43068,53171
43059,53158
43069,53157
43055,53149
43052,53127
43067,53137
43041,53135
43050,53138
43055,53125
43073,53137
43066,53145
43061,53151
43062,53145
43071,53138
43077,53163
43051,53148
43072,53120
43059,53119
43062,53150
43065,53114
43061,53131
43075,53135
43051,53129
43071,53131
43068,53148
43052,53139
43089,53152
43069,53142
43049,53151
43041,53149
43046,53164
43065,53160
43054,53163
43057,53154
43063,53185
43076,53192
43085,53184
43076,53182
43075,53188
43082,53203
43086,53219
43083,53208
43081,53210
43087,53216
43085,53238
43098,53222
43083,53222
43085,53240
43094,53234
43085,53244
43093,53254
43093,53272
43102,53247
43102,53267
43100,53257
43100,53264
43090,53280
43116,53267
43116,53268
43109,53292
43098,53295
43124,53291
43113,53298
43124,53312
43138,53313
43130,53323
43123,53334
43121,53318
43120,53335
43133,53351
43117,53351
43143,53359
43140,53364
43143,53363
43154,53368
43140,53357
43143,53382
43157,53389
43157,53384
43157,53385
43151,53392
43168,53399
43157,53419
43179,53420
43164,53421
43172,53429
43174,53435
43186,53455
43177,53454
43181,53466
43164,53432
43168,53405
43141,53381
43138,53332
43135,53299
43106,53269
43096,53235
43097,53212
43088,53176
43071,53169
43082,53167
43068,53154
43075,53156
43075,53152
43081,53166
43085,53159
43091,53160
43084,53174
43076,53174
43084,53172
43087,53172
43082,53181
43070,53158
43072,53151
43076,53138
43064,53125
43047,53129
43065,53116
43064,53118
43059,53115
43057,53135
43063,53127
43072,53140
43069,53141
43082,53136
43082,53151
43081,53144
43077,53160
43083,53159
43080,53166
43080,53159
43067,53142
43064,53152
43065,53147
43078,53146
43082,53166
43084,53140
43083,53146
43075,53151
43087,53160
43093,53165
43093,53172
43092,53166
43092,53179
43103,53197
43086,53197
43101,53190
43099,53213
43098,53221
43123,53220
43111,53223
43113,53229
43109,53253
43110,53248
43112,53260
43115,53261
43123,53270
43113,53267
43136,53294
43129,53286
43138,53291
43139,53292
43137,53296
43137,53309
43138,53318
43138,53317
43158,53333
43147,53347
43146,53349
43141,53347
43149,53361
43160,53362
43152,53375
43151,53375
43180,53377
43155,53381
43161,53384
43170,53404
43170,53404
43179,53416
43188,53423
43179,53444
43183,53421
43187,53439
43161,53442
43186,53450
43187,53462
43182,53478
43189,53470
43190,53497
43200,53499
43201,53500
43216,53494
43204,53513
43214,53516
43211,53519
43212,53528
43221,53529
43225,53541
43226,53560
43225,53565
43212,53560
43226,53574
43241,53571
43249,53576
43224,53586
43236,53581
43213,53555
43209,53542
43187,53496
43191,53461
43179,53456
43167,53441
43169,53418
43174,53406
43153,53413
43164,53410
43175,53408
43154,53411
43196,53428
43174,53447
43184,53447
43187,53466
43191,53477
43185,53475
43182,53473
43197,53486
43194,53474
43194,53484
43193,53483
43181,53490
43193,53477
43181,53478
43199,53476
43192,53489
43185,53486
43198,53486
43208,53500
43204,53507
43196,53507
43184,53513
43206,53518
43196,53508
43185,53505
43195,53517
43201,53505
43193,53523
43200,53529
43192,53520
43186,53521
43202,53526
43204,53541
43210,53528
43207,53541
43202,53525
43185,53563
43210,53559
43216,53560
43198,53576
43200,53564
43230,53571
43216,53585
43212,53585
43214,53602
43255,53633
43224,53599
43234,53617
43236,53627
43231,53638
43234,53681
43221,53662
43233,53638
43247,53616
43244,53675
43243,53667
43244,53670
43250,53681
43241,53689
43237,53691
43233,53700
43255,53694
43276,53710
43285,53702
43247,53700
43249,53714
43230,53732
43236,53729
43239,53743
43261,53757
43278,53745
43257,53753
43271,53754
43270,53756
43269,53785
43284,53784
43274,53780
43272,53776
43262,53792
43276,53800
43290,53804
43280,53813
43270,53805
43286,53818
43288,53832
43290,53839
43285,53844
43290,53858
43289,53840
43305,53858
43287,53851
43305,53876
43293,53874
43303,53862
43293,53840
43260,53803
43262,53794
43252,53768
43249,53746
43255,53764
43247,53741
43240,53733
43247,53745
43235,53727
43244,53738
43246,53753
43242,53772
43255,53760
43250,53781
43254,53773
43271,53792
43275,53777
43268,53776
43261,53789
43257,53786
43252,53779
43254,53777
43255,53768
43268,53781
43253,53773
43247,53763
43248,53772
43266,53775
43252,53783
43253,53786
43265,53809
43262,53783
43273,53815
43279,53811
43270,53816
43267,53825
43276,53822
43267,53815
43275,53840
43274,53831
43261,53822
43273,53820
43266,53835
43269,53826
43273,53819
43286,53841
43263,53843
43265,53848
43268,53842
43264,53847
43284,53851
43281,53861
43281,53865
43288,53872
43276,53872
43296,53885
43283,53886
43296,53908
43285,53895
43294,53905
43290,53891
43284,53908
43309,53916
43289,53916
43295,53937
43311,53938
43311,53941
43310,53949
43312,53950
43296,53953
43299,53941
43318,53961
43311,53964
43303,53969
43326,53965
43309,53972
43294,53979
43312,53994
43306,53969
43300,53955
43300,53974
43307,53970
43305,53986
43310,53981
43299,53973
43311,53983
43302,53979
43308,53981
43314,53997
43304,54012
43323,54030
43312,54024
43318,54025
43313,54045
43323,54037
43327,54052
43321,54056
43339,54043
43334,54048
43342,54066
43339,54068
43334,54079
43334,54084
43342,54088
43359,54107
43350,54099
43352,54109
43358,54113
43343,54142
43359,54148
43366,54130
43359,54146
43359,54137
43372,54161
43367,54166
43377,54185
43361,54186
43380,54174
43381,54182
43377,54199
43381,54192
43363,54190
43377,54168
43359,54158
43341,54123
43335,54095
43337,54091
43318,54059
43336,54052
43321,54039
43316,54017
43319,54036
43315,54046
43320,54050
43324,54051
43323,54055
43328,54051
43339,54079
43323,54084
43345,54083
43342,54083
43335,54081
43347,54090
43332,54089
43351,54104
43338,54082
43341,54091
43319,54074
43340,54085
43338,54081
43318,54096
43323,54084
43339,54090
43349,54080
43345,54093
43341,54108
43330,54095
43333,54111
43328,54094
43339,54091
43339,54098
43349,54080
43339,54094
43322,54092
43328,54096
43319,54096
43323,54088
43351,54101
43332,54103
43317,54096
43351,54107
43343,54115
43340,54110
43335,54122
43344,54115
43334,54107
43345,54095
43358,54103
43355,54121
43347,54126
43347,54120
43334,54143
43364,54154
43339,54150
43348,54149
43347,54145
43336,54155
43353,54156
43355,54142
43357,54149
43338,54183
43345,54167
43341,54170
43350,54184
43342,54173
43356,54153
43363,54179
43356,54182
43349,54199
43362,54181
43358,54189
43354,54185
43362,54199
43365,54190
43360,54223
43374,54203
43367,54203
43357,54202
43360,54210
43370,54211
43368,54258
43366,54222
43360,54210
43359,54192
43364,54222
43369,54222
43378,54250
43371,54222
43386,54265
43359,54249
43358,54243
43383,54247
43397,54257
43408,54251
43356,54224
43344,54211
43342,54173
43302,54157
43316,54114
43318,54102
43313,54087
43298,54069
43284,54054
43297,54055
43288,54050
43288,54049
43308,54046
43305,54061
43299,54052
43304,54063
43310,54060
43300,54064
43304,54076
43303,54044
43301,54056
43287,54053
43269,54047
43294,54029
43281,54015
43280,54017
43274,54017
43278,54024
43277,54008
43275,54004
43277,53995
43276,54015
43281,53992
43273,54014
43294,54004
43278,54022
43264,54014
43270,53993
43258,54017
43272,53982
43263,54007
43257,54015
43263,53997
43273,53992
43256,53993
43253,53980
43258,53978
43256,53979
43260,53980
43262,53990
43259,53972
43262,53988
43266,53988
43258,53978
43255,53986
43266,53976
43269,53995
43253,53987
43246,53990
43257,53998
43275,54006
43257,53996
43267,53999
43277,53999
43265,54009
43252,54017
43253,54013
43261,54007
43260,54009
43263,54012
43254,54009
43274,54015
43266,54018
43279,54020
43268,54019
43264,54024
43257,54009
43267,54044
43273,54019
43266,54028
43278,54029
43264,54029
43280,54041
43249,54042
43279,54042
43278,54059
43277,54045
43269,54055
43271,54051
43261,54056
43272,54063
43286,54072
43275,54058
43291,54072
43273,54077
43277,54072
43282,54089
43270,54072
43288,54087
43282,54091
43308,54105
43295,54098
43282,54126
43300,54116
43293,54111
43289,54115
43295,54126
43299,54129
43290,54137
43304,54139
43277,54126
43293,54144
43309,54138
43312,54143
43313,54146
43308,54140
43320,54162
43312,54163
43309,54169
43301,54161
43290,54161
43291,54155
43282,54108
43270,54074
43258,54044
43248,54023
43251,53987
43236,53969
43219,53954
43227,53932
43234,53942
43211,53925
43228,53906
43224,53923
43224,53919
43212,53933
43228,53929
43226,53933
43237,53947
43241,53932
43235,53942
43220,53926
43220,53927
43234,53911
43220,53902
43219,53902
43209,53888
43227,53885
43206,53879
43206,53866
43204,53881
43212,53877
43195,53875
43212,53881
43215,53866
43210,53887
43228,53881
43208,53873
43205,53870
43211,53874
43207,53875
43199,53871
43197,53854
43209,53856
43206,53864
43197,53846
43198,53848
43201,53853
43191,53862
43209,53858
43196,53828
43185,53853
43194,53839
43201,53837
43204,53843
43210,53868
43191,53839
43210,53860
43185,53865
43194,53859
43193,53858
43180,53871
43206,53860
43202,53873
43207,53855
43210,53872
43196,53882
43211,53869
43205,53877
43199,53893
43199,53873
43189,53863
43217,53890
43210,53907
43197,53881
43202,53874
43202,53873
43200,53894
43214,53891
43202,53907
43215,53896
43207,53879
43192,53885
43224,53899
43213,53911
43208,53913
43214,53927
43214,53905
43217,53918
43213,53900
43207,53914
43214,53924
43230,53927
43215,53937
43212,53944
43219,53928
43220,53928
43238,53956
43227,53944
43225,53949
43228,53952
43239,53971
43228,53959
43234,53957
43228,53959
43240,53948
43240,53962
43237,53977
43218,53977
43225,53980
43230,53978
43220,53986
43219,53966
43221,53938
43205,53900
43191,53885
43185,53846
43168,53837
43158,53803
43163,53779
43150,53790
43138,53750
43127,53721
43152,53706
43149,53720
43153,53740
43152,53749
43147,53755
43160,53741
43165,53740
43149,53740
43162,53750
43176,53734
43170,53742
43131,53715
43130,53705
43228,53959
43107,53706
43140,53701
43113,53709
43128,53685
43132,53705
43137,53705
43147,53693
43138,53691
43124,53695
43141,53704
43129,53705
43132,53694
43121,53686
43128,53681
43119,53693
43135,53680
43124,53663
43135,53671
43123,53676
43114,53672
43130,53674
43127,53701
43127,53669
43142,53673
43118,53676
43121,53677
43119,53671
43115,53671
43118,53687
43111,53689
43130,53690
43120,53708
43137,53697
43122,53700
43126,53706
43116,53701
43120,53708
43119,53707
43134,53728
43143,53727
43139,53721
43136,53712
43141,53722
43131,53712
43149,53721
43148,53723
43133,53733
43140,53728
43132,53747
43145,53732
43148,53728
43125,53754
43142,53758
43142,53744
43147,53750
43132,53743
43152,53764
43137,53761
43153,53762
43152,53758
43151,53780
43145,53786
43143,53782
43148,53793
43148,53775
43161,53800
43154,53787
43163,53799
43170,53789
43160,53806
43163,53821
43164,53804
43170,53832
43171,53817
43160,53817
43166,53813
43179,53826
43176,53833
43174,53839
43170,53838
43175,53850
43195,53843
43176,53852
43180,53851
43168,53869
43167,53839
43165,53812
43167,53803
43147,53770
43114,53728
43119,53693
43109,53670
43093,53645
43096,53629
43099,53601
43080,53591
43079,53605
43074,53586
43084,53579
43082,53585
43080,53584
43089,53583
43064,53584
43091,53575
43094,53579
43072,53582
43080,53583
43077,53568
43063,53570
43081,53544
43064,53541
43061,53536
43067,53515
43058,53501
43056,53519
43060,53504
43074,53512
43060,53506
43059,53505
43046,53497
43058,53532
43065,53518
43067,53513
43071,53526
43048,53519
43050,53524
43058,53513
43050,53506
43055,53495
43053,53496
43053,53492
43050,53488
43074,53501
43048,53492
43052,53487
43044,53491
43056,53495
43043,53482
43063,53490
43060,53504
43061,53505
43059,53509
43073,53515
43063,53513
43068,53529
43061,53511
43062,53509
43071,53538
43071,53528
43057,53531
43069,53545
43062,53531
43080,53537
43076,53550
43083,53543
43085,53554
43081,53551
43094,53549
43085,53564
43071,53585
43060,53570
43087,53570
43101,53577
43085,53575
43083,53577
43088,53591
43081,53589
43089,53593
43094,53607
43103,53623
43096,53606
43104,53613
43102,53612
43106,53611
43108,53639
43113,53641
43113,53636
43116,53638
43108,53654
43115,53659
43102,53654
43122,53672
43118,53656
43129,53682
43125,53692
43129,53697
43135,53689
43139,53690
43127,53708
43126,53704
43114,53719
43145,53732
43148,53732
43144,53737
43137,53740
43162,53735
43146,53753
43141,53762
43148,53752
43155,53763
43152,53762
43161,53770
43153,53796
43177,53783
43165,53781
43163,53788
43165,53807
43180,53819
43172,53819
43186,53813
43166,53813
43170,53785
43167,53773
43154,53735
43122,53705
43115,53678
43103,53622
43105,53620
43105,53609
43087,53624
43090,53588
43079,53565
43089,53583
43103,53601
43111,53590
43103,53604
43103,53607
43105,53602
43114,53613
43136,53627
43099,53634
43108,53632
43120,53614
43106,53615
43087,53592
43106,53614
43106,53596
43111,53600
43085,53627
43096,53580
43095,53572
43110,53559
43109,53610
43110,53610
43118,53628
43103,53629
43104,53617
43114,53612
43125,53619
43140,53628
43129,53618
43120,53624
43092,53624
43103,53618
43090,53621
43101,53618
43101,53631
43111,53608
43106,53614
43120,53629
43115,53631
43116,53633
43113,53632
43123,53641
43126,53663
43120,53650
43121,53654
43107,53654
43114,53662
43114,53680
43135,53680
43113,53683
43129,53688
43121,53692
43127,53695
43123,53693
43123,53711
43126,53699
43127,53715
43146,53710
43148,53701
43129,53713
43152,53714
43139,53734
43138,53735
43144,53731
43146,53730
43139,53746
43147,53759
43158,53748
43159,53754
43139,53757
43158,53767
43156,53762
43166,53779
43153,53777
43164,53792
43156,53788
43158,53775
43165,53795
43159,53802
43161,53808
43156,53793
43164,53804
43166,53805
43169,53819
43192,53807
43161,53826
43173,53845
43181,53834
43180,53842
43175,53845
43168,53861
43194,53852
43185,53861
43183,53874
43182,53852
43192,53870
43192,53876
43198,53871
43180,53883
43164,53838
43151,53807
43149,53773
43144,53736
43129,53723
43105,53693
43108,53693
43122,53671
43106,53670
43124,53662
43115,53656
43119,53664
43104,53652
43114,53656
43112,53674
43125,53695
43116,53674
43120,53672
43114,53689
43109,53668
43114,53668
43113,53668
43123,53663
43096,53639
43099,53651
43106,53642
43111,53643
43102,53647
43099,53634
43098,53636
43106,53645
43103,53658
43114,53658
43105,53657
43100,53652
43117,53665
43113,53662
43106,53667
43089,53654
43111,53658
43099,53642
43098,53651
43088,53629
43107,53646
43104,53643
43094,53635
43107,53630
43108,53656
43095,53649
43122,53646
43110,53637
43117,53649
43101,53649
43093,53656
43103,53664
43121,53665
43116,53657
43109,53684
43118,53660
43114,53672
43108,53674
43108,53676
43106,53684
43119,53690
43121,53691
43125,53687
43125,53705
43116,53695
43108,53693
43131,53710
43117,53708
43125,53715
43134,53727
43123,53723
43130,53712
43110,53736
43135,53725
43130,53724
43137,53732
43141,53740
43131,53746
43132,53741
43143,53748
43139,53744
43132,53759
43142,53772
43144,53748
43144,53764
43136,53776
43142,53770
43157,53777
43144,53792
43148,53788
43156,53796
43155,53798
43175,53790
43158,53802
43159,53810
43149,53824
43172,53815
43156,53830
43164,53826
43175,53835
43160,53838
43174,53822
43155,53829
43168,53858
43177,53841
43171,53852
43179,53859
43176,53863
43165,53876
43172,53867
43168,53877
43176,53879
43184,53889
43166,53899
43185,53887
43188,53895
43195,53912
43199,53912
43215,53914
43198,53904
43192,53937
43185,53932
43190,53928
43182,53901
43165,53875
43156,53854
43151,53816
43148,53775
43130,53747
43127,53726
43108,53724
43127,53709
43113,53701
43118,53679
43103,53687
43109,53689
43129,53681
43101,53696
43133,53703
43119,53688
43124,53694
43121,53689
43124,53695
43111,53698
43117,53671
43118,53689
43117,53665
43114,53664
43103,53663
43119,53648
43111,53629
43113,53653
43113,53661
43109,53653
43096,53658
43113,53650
43116,53663
43111,53652
43116,53648
43117,53660
43135,53646
43105,53653
43124,53671
43116,53651
43123,53649
43100,53668
43112,53656
43103,53629
43088,53626
43111,53637
43105,53623
43111,53639
43106,53633
43098,53648
43102,53642
43107,53637
43105,53637
43130,53666
43138,53660
43103,53664
43123,53655
43083,53660
43080,53658
43090,53666
43111,53692
43124,53679
43113,53670
43116,53680
43104,53684
43125,53695
43128,53702
43122,53697
43125,53709
43126,53711
43122,53716
43119,53705
43117,53720
43116,53708
43124,53696
43132,53717
43121,53726
43125,53726
43143,53744
43125,53723
43137,53729
43139,53733
43142,53739
43133,53742
43140,53746
43147,53740
43139,53762
43155,53749
43156,53746
43161,53770
43153,53757
43148,53754
43164,53778
43157,53782
43156,53786
43154,53785
43147,53771
43162,53784
43155,53790
43167,53795
43159,53803
43171,53809
43172,53814
43178,53805
43179,53813
43177,53820
43184,53833
43177,53819
43163,53847
43184,53867
43193,53851
43195,53858
43199,53870
43170,53868
43181,53873
43191,53867
43183,53866
43201,53861
43179,53851
43170,53824
43157,53792
43144,53744
43121,53740
43120,53672
43114,53667
43106,53664
43106,53638
43091,53616
43103,53606
43100,53600
43107,53604
43096,53603
43099,53621
43092,53614
43098,53614
43105,53629
43118,53617
43097,53626
43113,53619
43099,53619
43099,53613
43105,53610
43092,53603
43092,53601
43084,53591
43093,53584
43101,53578
43097,53573
43090,53588
43093,53569
43087,53578
43095,53574
43097,53593
43090,53583
43100,53587
43085,53584
43090,53569
43098,53572
43084,53579
43107,53566
43074,53556
43090,53551
43066,53570
43073,53562
43075,53547
43086,53544
43074,53569
43089,53557
43084,53553
43092,53574
43082,53583
43093,53554
43081,53563
43096,53573
43091,53564
43083,53565
43080,53575
43091,53577
43089,53580
43096,53578
43090,53593
43090,53602
43093,53594
43091,53604
43089,53598
43096,53608
43106,53593
43106,53609
43098,53629
43087,53627
43105,53620
43114,53618
43093,53633
43106,53621
43092,53621
43082,53622
43088,53636
43112,53628
43115,53627
43107,53641
43107,53645
43105,53658
43110,53667
43109,53647
43107,53650
43114,53660
43112,53660
43117,53666
43104,53668
43113,53654
43117,53691
43129,53678
43117,53682
43125,53692
43134,53683
43124,53699
43110,53703
43125,53718
43122,53705
43139,53709
43121,53700
43130,53703
43108,53685
43113,53665
43090,53627
43084,53582
43063,53568
43066,53516
43035,53497
43048,53468
43027,53460
43037,53441
43026,53435
43031,53426
43058,53414
43035,53427
43035,53426
43020,53442
43023,53437
43032,53425
43023,53421
43021,53421
43020,53422
43028,53421
43010,53411
43032,53392
43000,53374
43006,53372
43005,53378
43009,53374
43005,53356
43006,53350
43011,53347
43006,53361
43010,53369
43023,53368
43003,53367
43021,53377
43017,53361
43018,53367
43020,53366
43024,53359
43012,53380
43012,53347
43004,53354
43007,53354
43009,53352
42998,53356
43004,53340
43008,53340
43021,53337
43019,53343
42996,53334
42995,53359
43003,53342
42993,53343
43007,53366
43015,53355
42999,53353
43018,53354
42997,53372
43006,53318
43013,53371
43022,53381
43013,53371
43035,53386
43010,53392
43031,53378
43015,53389
43025,53391
43026,53399
43056,53416
43028,53403
43039,53426
43016,53405
43030,53433
43023,53451
43027,53392
43034,53400
43051,53380
43036,53434
43035,53436
43046,53434
43041,53435
43051,53445
43043,53447
43034,53455
43053,53464
43078,53481
43064,53458
43047,53479
43020,53476
42997,53372
43051,53493
43052,53493
43054,53498
43065,53502
43072,53499
43063,53510
43067,53530
43078,53523
43066,53535
43066,53530
43084,53536
43073,53527
43078,53546
43073,53536
43081,53545
43090,53558
43076,53554
43084,53567
43089,53590
43092,53582
43098,53584
43095,53596
43102,53597
43097,53609
43097,53600
43106,53595
43092,53631
43103,53636
43099,53629
43102,53625
43111,53641
43103,53629
43092,53606
43093,53598
43075,53539
43054,53498
43052,53471
43033,53429
43026,53405
43021,53395
43010,53366
43016,53356
43008,53352
43001,53340
43006,53346
43006,53350
43016,53345
43010,53356
43021,53365
43030,53355
43016,53351
43011,53360
43022,53351
43023,53350
43015,53349
43003,53339
43026,53343
43007,53318
42997,53324
43004,53327
43005,53315
43003,53321
42999,53318
42995,53333
43016,53321
43000,53327
43008,53322
42999,53331
43012,53339
43006,53315
43017,53313
43008,53320
42990,53308
43001,53316
43012,53294
43004,53323
43011,53301
43004,53316
42994,53312
42996,53300
42996,53302
43007,53306
42994,53319
42994,53314
42991,53313
42998,53323
42999,53322
43003,53323
43003,53316
43008,53339
43015,53339
43003,53336
43020,53346
43012,53325
43012,53336
43005,53348
43010,53368
43005,53345
43015,53366
43010,53371
43010,53387
43012,53375
43021,53383
43018,53375
43025,53377
43018,53385
43019,53384
43020,53396
43030,53412
43030,53393
43027,53401
43021,53408
43025,53408
43038,53418
43032,53409
43021,53438
43037,53420
43023,53431
43039,53429
43032,53428
43037,53440
43028,53447
43042,53453
43036,53452
43041,53468
43052,53466
43045,53465
43040,53481
43058,53488
43051,53490
43048,53499
43062,53502
43064,53508
43071,53527
43060,53520
43052,53530
43061,53545
43062,53535
43076,53547
43080,53561
43079,53557
43074,53570
43061,53558
43086,53574
43093,53579
43097,53590
43086,53616
43091,53593
43088,53603
43088,53599
43091,53583
43064,53556
43065,53525
43044,53502
43027,53474
43019,53407
43026,53406
42998,53394
43008,53381
43004,53387
43015,53378
43016,53364
43009,53384
42999,53392
43015,53391
43013,53400
43014,53396
43022,53395
43019,53421
43036,53406
43028,53411
43025,53410
42994,53384
43007,53393
43013,53389
43002,53405
43014,53368
43010,53375
43000,53388
43012,53395
43010,53386
43015,53388
43005,53401
43014,53410
43005,53414
43006,53402
43018,53414
43015,53434
43014,53423
43023,53408
43021,53415
43016,53414
43006,53419
43021,53421
43013,53416
43015,53423
43026,53424
43012,53426
43004,53429
43021,53444
43007,53440
43013,53444
43015,53453
43019,53451
43015,53450
43030,53449
43034,53454
43030,53468
43028,53459
43033,53472
43025,53502
43037,53496
43027,53492
43029,53513
43034,53493
43028,53509
43040,53509
43029,53534
43024,53529
43044,53527
43058,53549
43045,53542
43047,53547
43041,53513
43048,53542
43055,53559
43063,53568
43049,53557
43055,53559
43067,53570
43067,53572
43066,53596
43060,53584
43086,53585
43060,53597
43063,53587
43056,53609
43088,53594
43070,53640
43064,53644
43067,53621
43077,53614
43072,53634
43078,53624
43076,53632
43087,53652
43081,53663
43084,53662
43090,53677
43103,53687
43116,53684
43118,53688
43093,53697
43083,53713
43072,53711
43080,53724
43082,53725
43102,53746
43108,53729
43099,53740
43106,53755
43110,53750
43133,53780
43112,53779
43125,53772
43114,53787
43129,53794
43125,53801
43124,53797
43129,53810
43133,53806
43126,53816
43134,53823
43139,53829
43112,53831
43117,53779
43108,53761
43099,53722
43076,53716
43076,53684
43065,53656
43071,53640
43059,53630
43058,53632
43051,53627
43068,53620
43079,53615
43060,53628
43054,53634
43065,53655
43077,53652
43074,53641
43066,53656
43084,53659
43074,53656
43076,53646
43079,53647
43057,53655
43067,53637
43066,53659
43069,53631
43067,53629
43061,53629
43054,53614
43058,53631
43062,53641
43080,53655
43067,53644
43069,53652
43061,53653
43058,53651
43077,53660
43060,53665
43066,53651
43068,53656
43065,53658
43070,53654
43058,53658
43055,53657
43071,53656
43062,53645
43078,53662
43057,53631
43069,53655
43074,53645
43059,53656
43068,53653
43084,53661
43072,53660
43064,53671
43070,53669
43078,53677
43085,53696
43077,53668
43078,53695
43079,53706
43077,53700
43084,53700
43098,53707
43087,53728
43081,53720
43084,53717
43085,53724
43087,53718
43083,53735
43089,53752
43093,53738
43093,53739
43096,53747
43093,53749
43103,53752
43084,53742
43103,53747
43076,53757
43099,53753
43090,53737
43091,53771
43107,53754
43105,53770
43087,53785
43112,53767
43106,53785
43115,53784
43110,53806
43117,53791
43126,53809
43110,53807
43115,53796
43119,53804
43125,53815
43119,53807
43108,53824
43106,53821
43094,53789
43100,53751
43095,53750
43064,53708
43068,53696
43042,53654
43061,53644
43039,53647
43052,53647
43040,53630
43030,53619
43036,53622
43054,53639
43052,53635
43048,53657
43043,53633
43050,53636
43052,53639
43057,53633
43051,53647
43046,53643
43041,53640
43045,53631
43031,53627
43041,53617
43036,53606
43028,53599
43026,53612
43035,53619
43021,53607
43027,53613
43023,53616
43036,53619
43026,53617
43020,53625
43045,53614
43034,53619
43035,53623
43035,53598
43011,53609
43034,53603
43020,53615
43013,53608
43026,53597
43029,53596
43028,53588
43031,53580
43037,53613
43021,53603
43027,53609
43014,53604
43022,53609
43039,53623
43032,53623
43036,53624
43033,53623
43018,53623
43020,53634
43042,53624
43023,53636
43036,53626
43034,53650
43032,53636
43038,53644
43045,53653
43033,53654
43036,53662
43034,53657
43051,53660
43045,53651
43032,53668
43038,53658
43045,53658
43029,53670
43039,53675
43037,53683
43029,53681
43041,53666
43044,53682
43023,53686
43054,53700
43041,53707
43036,53699
43038,53701
43062,53709
43050,53715
43035,53722
43059,53725
43055,53690
43046,53690
43035,53665
43016,53638
43015,53618
43010,53594
43008,53563
42985,53554
42995,53532
42976,53528
42986,53520
42981,53512
42983,53563
42990,53521
42988,53515
42978,53519
42984,53531
42985,53514
42977,53522
42995,53521
42996,53522
42983,53506
42980,53506
42965,53510
42968,53496
42961,53469
42975,53453
42972,53482
42962,53468
42969,53468
42967,53495
42973,53504
42966,53461
42975,53437
42967,53462
42958,53467
42971,53479
42970,53479
42965,53482
42970,53462
42961,53459
42960,53464
42966,53455
42981,53457
42987,53465
42960,53471
42959,53466
42978,53519
42954,53456
42939,53462
42957,53452
42957,53465
42955,53477
42969,53477
42966,53474
42961,53489
42996,53495
42984,53479
42978,53496
42974,53509
42974,53504
42976,53519
42987,53512
42978,53509
42984,53502
42963,53532
42977,53507
42983,53519
42975,53537
42993,53525
42991,53533
42987,53523
42972,53538
43005,53535
42977,53545
42976,53536
42999,53566
43001,53567
42981,53568
43006,53562
42987,53559
42998,53572
42993,53569
43009,53587
42992,53585
43017,53592
42995,53575
43012,53597
43003,53596
43019,53608
43007,53616
43010,53609
43013,53627
43012,53636
43011,53634
43023,53625
43025,53655
43023,53647
43026,53650
43029,53669
43041,53657
43032,53670
43035,53679
43043,53661
43039,53687
43032,53677
43052,53686
43044,53707
43046,53707
43054,53703
43057,53727
43053,53730
43043,53708
43055,53734
43062,53731
43050,53734
43066,53754
43057,53733
43056,53753
43059,53758
43048,53774
43079,53776
43066,53760
43079,53776
43060,53779
43074,53786
43075,53805
43095,53817
43081,53819
43081,53810
43106,53817
43092,53819
43094,53840
43091,53845
43091,53823
43088,53815
43076,53807
43076,53777
43043,53738
43046,53709
43041,53681
43026,53667
43030,53644
43022,53646
43037,53633
43023,53628
43032,53646
43036,53645
43047,53629
43030,53643
43023,53651
43041,53653
43047,53642
43036,53647
43039,53638
43042,53648
43030,53632
43038,53622
43024,53625
43030,53624
43035,53596
43027,53612
43011,53600
43027,53589
43037,53606
43032,53599
43020,53598
43043,53593
43022,53599
43032,53616
43031,53624
43031,53608
43014,53618
43031,53613
43037,53611
43041,53605
43038,53613
43033,53618
43023,53614
43031,53602
43020,53606
43035,53610
43019,53584
43026,53613
43044,53613
43033,53610
43043,53603
43041,53610
43029,53605
43036,53604
43036,53620
43048,53617
43035,53620
43035,53633
43052,53642
43039,53637
43043,53650
43042,53650
43047,53641
43054,53652
43047,53661
43046,53667
43054,53666
43052,53660
43056,53655
43067,53673
43054,53670
43058,53666
43043,53681
43057,53679
43075,53688
43082,53693
43078,53685
43058,53694
43060,53702
43081,53693
43081,53730
43066,53691
43080,53714
43079,53714
43073,53732
43071,53714
43077,53721
43081,53731
43076,53742
43078,53731
43095,53734
43088,53741
43072,53749
43081,53752
43086,53748
43078,53764
43084,53772
43085,53775
43094,53778
43094,53785
43101,53785
43087,53789
43076,53785
43103,53794
43107,53791
43107,53797
43105,53806
43096,53823
43111,53822
43111,53826
43108,53820
43107,53826
43096,53836
43115,53851
43111,53820
43121,53834
43110,53835
43108,53824
43104,53790
43078,53769
43079,53751
43063,53720
43057,53691
43058,53681
43050,53655
43035,53638
43037,53641
43032,53632
43033,53645
43052,53635
43062,53635
43032,53664
43049,53642
43046,53650
43055,53642
43049,53643
43050,53621
43055,53630
43033,53620
43042,53636
43039,53608
43045,53604
43026,53609
43026,53595
43041,53597
43035,53608
43025,53600
43035,53597
43032,53601
43036,53628
43034,53642
43005,53593
43038,53554
43026,53574
43023,53578
43030,53607
43025,53593
43021,53596
43023,53570
43011,53583
43042,53575
43042,53580
43061,53591
43062,53559
43009,53598
43033,53586
43055,53642
43012,53568
43026,53579
43010,53594
43031,53593
43024,53589
43033,53609
43032,53598
43026,53612
43053,53601
43036,53624
43039,53620
43033,53624
43038,53624
43024,53622
43042,53618
43048,53647
43032,53635
43052,53654
43052,53634
43048,53643
43046,53637
43041,53651
43045,53634
43056,53636
43036,53633
43046,53648
43054,53652
43065,53654
43045,53651
43066,53659
43055,53654
43051,53673
43062,53686
43048,53681
43055,53695
43065,53695
43062,53694
43066,53704
43065,53702
43071,53707
43057,53713
43085,53708
43059,53709
43072,53712
43071,53731
43072,53711
43081,53733
43088,53739
43095,53739
43091,53757
43090,53751
43102,53757
43089,53753
43100,53742
43085,53760
43101,53762
43098,53768
43089,53789
43093,53781
43099,53801
43090,53790
43093,53795
43105,53798
43116,53815
43104,53801
43105,53810
43112,53807
43111,53821
43102,53831
43122,53820
43097,53838
43112,53825
43105,53824
43096,53809
43077,53764
43078,53738
43073,53690
43052,53678
43051,53641
43050,53620
43053,53608
43035,53604
43026,53600
43034,53593
43027,53587
43037,53593
43039,53586
43040,53594
43028,53596
43045,53592
43035,53597
43045,53588
43040,53575
43047,53596
43037,53568
43033,53559
43032,53562
43038,53545
43027,53541
43022,53529
43026,53540
43030,53542
43025,53530
43039,53528
43026,53538
43035,53544
43031,53546
43030,53559
43019,53556
43018,53546
43027,53546
43040,53555
43040,53567
43036,53538
43033,53540
43044,53529
43019,53529
43035,53528
43026,53524
43028,53532
43020,53530
43021,53528
43027,53526
43034,53536
43023,53539
43023,53545
43022,53540
43040,53548
43013,53561
43050,53550
43051,53559
43045,53559
43039,53568
43039,53569
43048,53565
43034,53566
43048,53572
43040,53577
43053,53595
43060,53586
43053,53579
43045,53600
43068,53589
43046,53612
43058,53604
43050,53605
43054,53609
43049,53615
43056,53606
43062,53615
43051,53611
43061,53610
43064,53610
43063,53627
43069,53643
43068,53635
43057,53645
43067,53648
43068,53660
43067,53648
43070,53659
43082,53666
43079,53660
43080,53656
43079,53672
43067,53666
43075,53680
43090,53679
43080,53680
43084,53685
43089,53688
43089,53694
43096,53706
43085,53702
43095,53703
43097,53701
43102,53706
43103,53737
43111,53712
43100,53721
43101,53733
43089,53722
43081,53745
43097,53741
43093,53749
43103,53759
43113,53768
43093,53749
43127,53757
43099,53748
43085,53734
43071,53703
43082,53683
43057,53637
43051,53598
43040,53586
43024,53552
43036,53545
43026,53529
43025,53497
43025,53498
43033,53514
43032,53498
43016,53514
43028,53500
43019,53529
43034,53507
43020,53501
43023,53508
43020,53513
43028,53499
43021,53512
43007,53488
43021,53487
43005,53479
43012,53480
43016,53465
43018,53466
43006,53465
43012,53491
43016,53466
43012,53460
43002,53450
43008,53469
43011,53457
43004,53464
42996,53471
43012,53467
42997,53458
42991,53454
42992,53439
42988,53456
42990,53442
42995,53453
42987,53442
42994,53429
42994,53459
42983,53479
43010,53479
43007,53428
43001,53424
42997,53436
43004,53453
42993,53467
42999,53453
43005,53468
43006,53476
43013,53470
43002,53479
43033,53479
43020,53491
43021,53493
42997,53503
43007,53491
42997,53484
43012,53506
43015,53504
43011,53509
43004,53501
43001,53520
43017,53525
43032,53514
43033,53527
43025,53545
43024,53537
43022,53533
43014,53535
43025,53532
43028,53527
43040,53532
43020,53546
43018,53545
43024,53550
43035,53556
43029,53561
43046,53568
43032,53571
43022,53583
43033,53578
43033,53580
43021,53576
43024,53580
43012,53572
43036,53596
43047,53591
43040,53593
43033,53598
43037,53601
43035,53619
43038,53615
43047,53616
43051,53632
43051,53606
43051,53629
43050,53647
43064,53641
43047,53638
43055,53650
43059,53658
43055,53651
43064,53669
43050,53692
43054,53654
43060,53665
43049,53626
43038,53554
43027,53547
43008,53499
42992,53492
42990,53451
42971,53420
42985,53419
42961,53411
42971,53383
42955,53369
42970,53386
42965,53375
42959,53369
42985,53380
42976,53377
42974,53387
42969,53368
42973,53375
42963,53384
42949,53364
42968,53353
42954,53356
42963,53338
42962,53339
42968,53336
42955,53322
42957,53319
42944,53310
42960,53317
42959,53307
42955,53333
42957,53315
42954,53316
42945,53329
42957,53330
42941,53338
42951,53328
42954,53340
42954,53322
42939,53323
42943,53313
42954,53311
42939,53329
42944,53321
42954,53312
42942,53304
42941,53306
42956,53306
42934,53317
42945,53318
42945,53319
42945,53333
42939,53329
42949,53334
42950,53332
42958,53325
42962,53344
42957,53339
42947,53353
42970,53360
42971,53357
42970,53365
42959,53364
42954,53367
42970,53374
42959,53373
42967,53373
42964,53387
42966,53390
42975,53395
42974,53387
42975,53397
42972,53396
42976,53390
42989,53415
42994,53423
42987,53417
42966,53422
42987,53404
42964,53431
42982,53429
42990,53439
42990,53438
42992,53438
43008,53460
42991,53453
42983,53456
42990,53460
42994,53459
42991,53464
43003,53477
42998,53475
42998,53468
43002,53496
42991,53493
43001,53504
42994,53490
43008,53500
43013,53512
43008,53497
43004,53509
43032,53522
43025,53532
43016,53529
43022,53541
43024,53530
43019,53546
43014,53561
43032,53564
43031,53556
43041,53577
43023,53586
43036,53567
43032,53581
43034,53582
43038,53587
43031,53588
43048,53598
43041,53580
43013,53566
43008,53528
43022,53486
42989,53445
42981,53411
42970,53395
42940,53353
42940,53337
42958,53322
42957,53309
42945,53306
42953,53291
42935,53291
42955,53296
42942,53303
42954,53306
42955,53323
42953,53311
42952,53305
42961,53304
42941,53297
42929,53291
42932,53296
42945,53285
42951,53277
42935,53270
42937,53280
42931,53252
42940,53253
42928,53266
42921,53258
42928,53269
42936,53270
42932,53273
42922,53266
42926,53271
42919,53286
42928,53273
42925,53257
42926,53266
42927,53272
42920,53264
42925,53239
42943,53244
42923,53242
42907,53248
42924,53242
42937,53262
42918,53261
42915,53253
42926,53258
42922,53250
42927,53251
42919,53260
42939,53254
42929,53229
42936,53275
42935,53269
42934,53273
42932,53278
42932,53291
42929,53295
42950,53309
42927,53299
42941,53306
42965,53292
42937,53312
42941,53301
42941,53311
42936,53322
42935,53340
42950,53335
42952,53339
42941,53320
42947,53344
42945,53316
42959,53330
42965,53352
42952,53349
42963,53368
42943,53368
42954,53359
42966,53364
42972,53375
42963,53385
42965,53399
42945,53383
42941,53394
42944,53386
42979,53408
42970,53400
42973,53413
42976,53408
42983,53418
42973,53412
42972,53431
42970,53427
42970,53419
42963,53441
42979,53444
42978,53437
42986,53460
42999,53448
42999,53455
42998,53471
42985,53465
42994,53475
42992,53480
43009,53478
43019,53494
43000,53500
42998,53507
43001,53509
43015,53513
43005,53510
43027,53521
43018,53522
43026,53549
43000,53552
43025,53540
43010,53535
43022,53558
43034,53545
43016,53531
43008,53500
42986,53449
42964,53408
42951,53376
42941,53350
42928,53320
42925,53272
42926,53257
42922,53259
42911,53238
42921,53234
42913,53235
42929,53224
42915,53239
42919,53231
42924,53249
42914,53221
42938,53218
42923,53222
42914,53217
42920,53210
42906,53203
42899,53200
42910,53200
42902,53161
42896,53167
42913,53152
42911,53154
42894,53161
42903,53169
42872,53147
42897,53158
42912,53162
42896,53158
42901,53166
42890,53167
42896,53175
42907,53162
42888,53165
42893,53169
42908,53158
42904,53176
42883,53160
42891,53172
42890,53145
42890,53155
42892,53142
42871,53133
42889,53156
42901,53150
42902,53144
42899,53152
42895,53155
42891,53163
42898,53156
42901,53178
42904,53162
42919,53187
42906,53194
42908,53199
42919,53191
42917,53193
42917,53187
42914,53208
42917,53212
42912,53203
42921,53214
42907,53224
42923,53214
42912,53237
42925,53237
42938,53244
42931,53254
42941,53256
42932,53255
42932,53260
42943,53256
42940,53266
42939,53271
42945,53281
42946,53292
42936,53291
42945,53287
42943,53305
42961,53298
42948,53313
42958,53312
42944,53302
42955,53322
42961,53324
42968,53329
42955,53327
42968,53344
42964,53354
42971,53358
42973,53356
42988,53365
42971,53365
42964,53359
42972,53380
42980,53397
42986,53392
42980,53394
42995,53394
42992,53407
42996,53426
43003,53424
42996,53419
43000,53422
43012,53451
42985,53438
43004,53445
43011,53453
43013,53460
43025,53476
43003,53473
43006,53489
43013,53478
43017,53488
43003,53501
43019,53494
43026,53504
43033,53512
43028,53520
43028,53531
43035,53528
43022,53531
43024,53527
43028,53490
43011,53467
42990,53428
42977,53394
42965,53357
42950,53313
42948,53287
42926,53251
42913,53239
42929,53227
42928,53217
42929,53196
42932,53212
42954,53211
42937,53217
42939,53219
42942,53219
42945,53218
42932,53233
42938,53219
42943,53219
42948,53202
42933,53205
42930,53200
42934,53195
42915,53181
42917,53191
42922,53185
42914,53166
42919,53171
42913,53181
42918,53184
42931,53170
42924,53184
42947,53195
42921,53195
42922,53183
42934,53192
42922,53179
42930,53167
42922,53184
42926,53175
42910,53174
42928,53164
42914,53152
42927,53160
42926,53158
42914,53165
42913,53156
42907,53149
42927,53165
42917,53150
42911,53169
42936,53175
42922,53176
42929,53171
42927,53183
42922,53184
42921,53177
42922,53209
42929,53178
42936,53195
42921,53208
42944,53214
42943,53211
42940,53219
42944,53215
42947,53221
42953,53224
42956,53241
42933,53227
42955,53246
42940,53228
42947,53237
42955,53260
42953,53266
42949,53250
42959,53258
42941,53229
42938,53245
42942,53265
42960,53246
42959,53265
42962,53266
42959,53261
42966,53278
42983,53288
42958,53291
42988,53304
42961,53293
42930,53302
42922,53209
42975,53315
42975,53310
42963,53340
42972,53317
42976,53347
42986,53340
42960,53353
42978,53339
42978,53325
42970,53322
42971,53304
42952,53260
42944,53236
42928,53189
42920,53158
42917,53122
42904,53101
42895,53076
42890,53056
42878,53053
42887,53044
42896,53033
42899,53031
42898,53029
42878,53024
42884,53022
42892,53026
42890,53036
42881,53024
42890,53007
42879,53001
42888,53009
42857,53005
42883,52982
42873,52962
42858,52964
42874,52953
42867,52953
42866,52954
42869,52946
42866,52954
42873,52952
42880,52953
42860,52979
42865,52962
42862,52968
42871,52974
42878,52977
42884,52964
42882,52975
42878,52959
42871,52962
42870,52949
42876,52959
42881,52953
42881,52959
42866,52952
42876,52941
42867,52958
42878,52953
42876,52952
42882,52945
42879,52968
42874,52968
42872,52967
42876,52972
42880,52972
42884,52970
42900,52979
42915,52988
42892,52985
42880,53007
42894,53011
42890,53015
42906,53014
42905,53022
42908,53016
42892,53013
42909,53039
42904,53035
42920,53035
42895,53029
42913,53034
42917,53039
42906,53064
42925,53049
42916,53058
42902,53072
42928,53068
42920,53066
42926,53077
42919,53086
42923,53081
42932,53090
42927,53095
42927,53089
42925,53102
42943,53113
42929,53095
42944,53130
42943,53114
42947,53116
42951,53134
42941,53125
42961,53136
42959,53149
42953,53132
42952,53152
42967,53176
42962,53174
42961,53174
42967,53183
42960,53185
42973,53203
42977,53193
42982,53202
42968,53212
42976,53218
42989,53219
42983,53224
42992,53228
42989,53224
42992,53253
43004,53253
43001,53253
42998,53269
43012,53273
43012,53270
42997,53279
43006,53293
43017,53309
43006,53310
43028,53309
43025,53312
43016,53314
43023,53324
43018,53324
43021,53344
43034,53368
43043,53358
43027,53334
43013,53316
43008,53289
42974,53246
42982,53215
42959,53163
42958,53134
42956,53090
42938,53079
42922,53060
42914,53038
42931,53050
42923,53019
42924,53033
42928,53031
42946,53030
42928,53034
42944,53034
42928,53030
42939,53039
42937,53031
42927,53024
42939,53016
42927,53026
42928,53009
42932,52980
42913,52996
42913,52985
42915,52978
42917,52980
42911,52978
42913,52974
42908,52981
42918,52974
42919,52978
42921,52986
42946,52988
42935,52978
42929,52994
42933,52984
42918,52976
42935,52997
42915,52974
42927,52969
42930,52981
42921,52964
42927,52959
42920,52943
42922,52959
42919,52979
42922,52946
42932,52970
42931,52974
42924,52972
42932,52978
42928,52980
42931,52983
42939,52987
42937,52979
42955,52998
42946,53005
42956,53001
42939,53010
42943,52997
42948,53014
42956,53012
42947,53027
42955,53035
42951,53052
42954,53047
42946,53034
42969,53045
42966,53039
42968,53058
42966,53063
42962,53049
42970,53049
42961,53069
42969,53071
42960,53083
42969,53076
42965,53097
42982,53085
42972,53071
42983,53091
42984,53109
42982,53092
42971,53112
42982,53102
42987,53113
42975,53123
42986,53132
42997,53122
43000,53142
42991,53115
43000,53140
42998,53157
42999,53147
42996,53150
43011,53184
43003,53189
43013,53180
43015,53139
43005,53165
43016,53171
43021,53217
43017,53209
43010,53216
43013,53223
43020,53235
43021,53213
43030,53212
43027,53252
43063,53239
43054,53235
43026,53259
43011,53251
43030,53273
43049,53261
43053,53271
43048,53275
43029,53256
43025,53216
43005,53180
43011,53143
42983,53113
42974,53096
42964,53062
42959,53035
42963,53024
42949,53004
42939,52999
42962,53002
42952,53001
42945,53007
42956,53008
42956,53003
42956,53016
42960,53012
42963,53003
42960,53008
42951,52997
42950,52990
42953,52983
42955,53000
42951,52990
42957,52971
42945,52966
42957,52968
42948,52948
42951,52959
42950,52978
42956,52965
42963,52979
42936,52982
42961,52986
42957,52975
42967,53001
42959,52989
42961,52990
42958,52979
42949,52992
42963,52973
42952,52991
42960,52973
42967,52991
42946,52978
42962,52982
42954,52979
42957,52991
42953,52989
42955,52985
42954,52995
42965,52999
42969,52995
42962,52998
42958,53020
42976,53031
42966,53021
42983,53021
42979,53020
42981,53033
42995,53045
42973,53035
42978,53058
42996,53058
43006,53067
42989,53069
42989,53080
43007,53076
42984,53083
42999,53090
43009,53080
42995,53094
43007,53087
43001,53101
42990,53094
43004,53109
43000,53126
43017,53131
43020,53117
43006,53134
43019,53136
43010,53155
43021,53159
43024,53141
43028,53156
43027,53167
43020,53159
43026,53164
43015,53174
43022,53198
43038,53193
43028,53194
43025,53203
43050,53215
43042,53187
43047,53213
43043,53223
43044,53229
43051,53247
43031,53258
43060,53269
43049,53255
43053,53263
43060,53273
43056,53300
43064,53290
43066,53306
43081,53300
43077,53302
43085,53314
43065,53331
43080,53341
43080,53337
43089,53348
43091,53350
43099,53354
43095,53371
43084,53374
43092,53396
43105,53393
43101,53406
43100,53407
43108,53405
43105,53388
43089,53380
43079,53357
43083,53314
43071,53276
43059,53252
43042,53241
43032,53229
43043,53198
43030,53209
43036,53194
43036,53185
43042,53205
43041,53189
43036,53191
43038,53209
43042,53212
43060,53203
43046,53217
43059,53219
43045,53220
43042,53211
43036,53217
43032,53213
43027,53208
43036,53197
43029,53177
43040,53187
43035,53200
43029,53173
43031,53190
43020,53197
43048,53207
43035,53212
43037,53203
43048,53212
43038,53219
43046,53212
43048,53204
43056,53226
43033,53219
43039,53214
43045,53221
43042,53215
43046,53208
43036,53217
43044,53225
43037,53217
43036,53208
43042,53218
43045,53233
43045,53231
43044,53227
43051,53217
43040,53246
43060,53235
43056,53247
43037,53247
43060,53260
43050,53269
43070,53272
43054,53283
43044,53287
43060,53291
43044,53300
43059,53281
43069,53299
43050,53296
43069,53295
43062,53313
43062,53313
43070,53328
43068,53325
43081,53341
43066,53322
43085,53327
43089,53329
43065,53344
43072,53345
43075,53349
43081,53356
43080,53350
43082,53358
43087,53373
43091,53369
43087,53378
43077,53377
43094,53382
43085,53394
43099,53390
43097,53400
43087,53434
43103,53399
43086,53404
43095,53428
43104,53411
43094,53398
43105,53421
43114,53435
43088,53442
43099,53445
43107,53435
43106,53452
43108,53448
43108,53460
43108,53478
43095,53474
43117,53479
43123,53477
43116,53511
43108,53531
43126,53490
43124,53468
43128,53479
43136,53510
43123,53526
43143,53545
43146,53542
43139,53535
43133,53548
43141,53549
43152,53551
43165,53567
43171,53563
43130,53549
43135,53527
43095,53496
43095,53453
43084,53433
43089,53419
43071,53392
43058,53375
43063,53366
43066,53360
43070,53347
43076,53356
43075,53364
43080,53345
43080,53378
43076,53360
43077,53379
43073,53378
43058,53355
43073,53351
43061,53351
43075,53356
43053,53343
43067,53349
43068,53349
43055,53327
43080,53326
43049,53337
43065,53337
43047,53324
43052,53327
43053,53332
43076,53344
43059,53341
43058,53342
43076,53350
43066,53358
43063,53338
43065,53350
43052,53331
43062,53348
43058,53334
43071,53340
43051,53325
43062,53333
43043,53330
43058,53324
43068,53342
43050,53352
43060,53332
43066,53339
43044,53357
43071,53350
43063,53365
43072,53349
43076,53345
43070,53366
43076,53360
43059,53367
43080,53372
43073,53368
43063,53393
43071,53375
43069,53385
43066,53404
43075,53388
43086,53397
43075,53394
43064,53405
43085,53398
43087,53411
43092,53412
43076,53405
43077,53422
43092,53422
43093,53432
43084,53428
43082,53448
43095,53440
43100,53429
43081,53441
43099,53438
43094,53443
43102,53452
43092,53460
43094,53474
43088,53470
43094,53478
43096,53479
43103,53485
43111,53491
43118,53491
43089,53500
43123,53492
43105,53501
43099,53511
43119,53516
43112,53519
43128,53518
43122,53526
43120,53527
43135,53557
43125,53552
43140,53568
43128,53556
43132,53570
43134,53563
43137,53583
43142,53589
43129,53583
43128,53610
43145,53603
43148,53613
43150,53620
43155,53598
43147,53620
43146,53618
43155,53632
43151,53631
43151,53635
43152,53640
43164,53644
43162,53650
43166,53661
43184,53671
43165,53671
43162,53674
43170,53685
43165,53656
43147,53652
43143,53618
43139,53585
43126,53546
43126,53533
43110,53473
43114,53478
43104,53460
43089,53450
43080,53446
43081,53432
43100,53452
43091,53459
43086,53443
43102,53435
43102,53454
43096,53470
43114,53459
43116,53457
43111,53452
43097,53433
43109,53445
43103,53455
43084,53428
43086,53420
43089,53420
43087,53426
43094,53421
43080,53421
43105,53412
43078,53433
43095,53443
43095,53442
43101,53433
43103,53443
43090,53436
43089,53443
43093,53441
43104,53442
43097,53442
43089,53436
43098,53433
43097,53445
43091,53422
43078,53429
43081,53424
43083,53423
43081,53421
43074,53427
43087,53427
43092,53430
43102,53428
43093,53419
43094,53443
43093,53449
43097,53451
43084,53448
43097,53467
43095,53463
43094,53466
43108,53471
43098,53474
43095,53488
43100,53490
43097,53491
43104,53502
43127,53487
43108,53506
43109,53513
43112,53502
43110,53512
43114,53502
43122,53520
43119,53511
43122,53533
43112,53520
43116,53532
43118,53540
43128,53529
43116,53545
43109,53538
43139,53540
43129,53560
43114,53568
43141,53550
43127,53573
43131,53574
43123,53586
43139,53584
43141,53593
43132,53595
43140,53595
43127,53603
43162,53633
43146,53611
43141,53624
43148,53622
43156,53627
43145,53615
43159,53648
43160,53645
43167,53655
43162,53674
43164,53657
43146,53657
43164,53669
43163,53684
43162,53690
43190,53709
43169,53700
43169,53704
43169,53706
43183,53722
43188,53712
43181,53706
43196,53702
43170,53721
43182,53703
43167,53691
43151,53669
43121,53632
43147,53603
43121,53587
43114,53567
43145,53562
43134,53538
43101,53543
43117,53549
43083,53559
43100,53556
43108,53551
43113,53566
43131,53588
43134,53571
43117,53576
43139,53581
43130,53579
43125,53579
43120,53594
43126,53581
43127,53571
43122,53578
43120,53558
43126,53588
43115,53582
43128,53569
43125,53568
43113,53565
43118,53591
43111,53595
43118,53578
43120,53591
43120,53594
43136,53617
43128,53611
43119,53605
43118,53618
43127,53620
43139,53610
43136,53602
43116,53613
43127,53624
43119,53604
43140,53603
43116,53604
43124,53604
43120,53625
43130,53616
43112,53619
43127,53629
43135,53640
43130,53653
43142,53651
43138,53639
43158,53649
43139,53670
43146,53666
43148,53674
43142,53679
43142,53679
43135,53675
43137,53676
43154,53697
43166,53699
43163,53709
43159,53692
43160,53722
43151,53719
43159,53730
43162,53723
43168,53721
43161,53735
43154,53737
43167,53733
43156,53738
43163,53760
43173,53754
43167,53769
43153,53760
43168,53756
43150,53762
43167,53766
43178,53781
43165,53779
43157,53784
43190,53789
43179,53801
43172,53794
43164,53821
43169,53813
43182,53820
43182,53813
43194,53817
43189,53838
43194,53830
43177,53836
43199,53842
43184,53855
43183,53864
43191,53875
43191,53868
43199,53879
43200,53867
43200,53873
43199,53891
43211,53879
43211,53904
43208,53911
43193,53896
43200,53912
43217,53940
43212,53918
43211,53936
43223,53937
43216,53943
43224,53953
43230,53941
43238,53958
43228,53958
43226,53963
43238,53951
43220,53958
43215,53938
43195,53916
43190,53888
43199,53849
43176,53849
43186,53813
43158,53797
43162,53790
43165,53766
43160,53772
43164,53764
43181,53763
43163,53768
43166,53799
43173,53792
43178,53796
43159,53800
43161,53811
43178,53806
43174,53823
43182,53812
43187,53811
43169,53804
43180,53796
43162,53812
43161,53816
43160,53804
43167,53806
43167,53794
43154,53803
43156,53813
43150,53795
43157,53811
43179,53817
43168,53814
43177,53835
43179,53837
43161,53825
43171,53831
43158,53832
43173,53814
43155,53821
43167,53831
43179,53812
43154,53823
43165,53804
43173,53812
43168,53818
43161,53832
43175,53832
43147,53828
43169,53834
43175,53820
43172,53831
43178,53841
43175,53834
43172,53852
43182,53845
43180,53871
43181,53869
43165,53861
43175,53867
43177,53870
43191,53881
43179,53875
43172,53876
43176,53880
43184,53875
43164,53884
43175,53895
43193,53901
43184,53900
43182,53884
43192,53901
43178,53912
43189,53899
43176,53898
43192,53919
43194,53919
43195,53936
43183,53917
43205,53925
43191,53935
43193,53932
43189,53932
43187,53935
43184,53930
43198,53947
43208,53958
43187,53934
43194,53954
43213,53957
43212,53966
43207,53973
43210,53958
43199,53970
43197,53963
43198,53974
43210,53975
43195,53980
43208,53985
43211,53991
43209,54001
43204,53996
43203,53997
43206,54023
43202,54042
43212,54020
43208,54014
43211,54021
43215,54023
43209,54020
43228,54022
43207,54029
43228,54028
43207,54051
43213,54049
43214,54048
43229,54061
43227,54054
43209,54045
43166,54015
43192,53996
43184,53986
43171,53983
43160,53943
43148,53846
43132,53809
43133,53822
43124,53843
43145,53826
43132,53838
43133,53843
43136,53825
43139,53851
43139,53852
43164,53845
43167,53841
43130,53861
43114,53839
43123,53853
43132,53840
43132,53838
43143,53842
43135,53830
43129,53806
43109,53794
43121,53799
43112,53817
43122,53790
43113,53805
43107,53811
43119,53810
43123,53806
43112,53798
43115,53822
43118,53801
43107,53791
43104,53803
43102,53814
43103,53790
43096,53795
43099,53788
43110,53795
43097,53775
43093,53783
43090,53779
43100,53785
43099,53780
43112,53777
43108,53780
43096,53770
43101,53771
43104,53788
43091,53779
43105,53771
43105,53792
43095,53795
43103,53791
43099,53776
43099,53789
43107,53774
43095,53798
43085,53784
43096,53796
43106,53804
43110,53804
43094,53799
43103,53804
43103,53816
43112,53813
43111,53807
43115,53814
43102,53826
43100,53823
43080,53803
43090,53813
43107,53819
43116,53816
43112,53809
43098,53836
43109,53837
43106,53830
43107,53853
43108,53842
43105,53851
43096,53838
43121,53844
43119,53858
43103,53858
43103,53843
43117,53843
43114,53866
43131,53863
43102,53859
43129,53885
43120,53860
43119,53884
43134,53892
43105,53888
43119,53870
43120,53890
43123,53903
43135,53895
43118,53920
43129,53908
43131,53902
43122,53918
43124,53920
43134,53928
43131,53932
43130,53926
43138,53932
43130,53929
43132,53927
43134,53935
43145,53955
43154,53949
43141,53947
43137,53967
43140,53972
43131,53949
43130,53934
43117,53901
43104,53867
43080,53839
43078,53804
43065,53784
43042,53759
43051,53730
43046,53713
43059,53711
43048,53698
43046,53698
43043,53701
43042,53697
43059,53693
43046,53694
43057,53690
43048,53715
43047,53687
43050,53696
43053,53701
43041,53693
43038,53693
43032,53663
43049,53682
43036,53656
43039,53657
43010,53647
43022,53652
43033,53648
43032,53638
43020,53636
43017,53655
43024,53646
43029,53651
43040,53638
43032,53633
43034,53640
43027,53643
43010,53615
43027,53623
43016,53636
43004,53618
43018,53633
43027,53603
43020,53615
43013,53609
43015,53608
43018,53604
43015,53609
42999,53606
43021,53610
43001,53627
43004,53606
43009,53596
43018,53595
42998,53611
43025,53626
42999,53620
43017,53620
43009,53633
43017,53621
43013,53625
43022,53633
43010,53627
43016,53615
43015,53628
43020,53632
43008,53628
43021,53635
43014,53645
43017,53642
43020,53643
43026,53648
43025,53651
43005,53650
43028,53644
43034,53648
43040,53647
43006,53662
43030,53657
43034,53672
43028,53661
43030,53669
43039,53667
43029,53666
43023,53678
43031,53684
43046,53669
43029,53681
43033,53698
43038,53692
43034,53694
43030,53705
43052,53691
43033,53710
43032,53696
43041,53711
43042,53710
43046,53718
43051,53715
43047,53735
43046,53728
43057,53731
43043,53726
43059,53723
43054,53728
43058,53725
43061,53754
43060,53747
43061,53748
43054,53752
43069,53766
43084,53759
43077,53757
43058,53762
43057,53771
43072,53775
43068,53769
43057,53743
43056,53729
43056,53704
43028,53667
43030,53635
42994,53594
43005,53580
42988,53558
42991,53543
42976,53511
42994,53506
42966,53484
42990,53504
42971,53506
42991,53492
42948,53493
42971,53529
42972,53532
42980,53533
42978,53502
42975,53465
42968,53461
42969,53464
42967,53473
42968,53469
42970,53468
42955,53456
42953,53456
42975,53463
42965,53439
42999,53445
42941,53455
42928,53449
43056,53729
42969,53443
42949,53447
42956,53438
42953,53436
42962,53440
42970,53438
42953,53421
42948,53422
42955,53403
42947,53397
42943,53407
42939,53411
42937,53409
42941,53401
42953,53393
42949,53405
42939,53407
42945,53419
42941,53413
42941,53424
42966,53424
42963,53421
42952,53427
42951,53412
42961,53429
42953,53436
42954,53419
42941,53438
42950,53434
42942,53438
42941,53432
42965,53421
42970,53451
42954,53453
42958,53447
42979,53453
42965,53451
42965,53461
42959,53469
42962,53456
42966,53466
42985,53462
42945,53460
42961,53485
42977,53463
42967,53471
42955,53473
42958,53465
42987,53472
42963,53466
42976,53477
42978,53491
42993,53492
42977,53492
42991,53496
42983,53489
42986,53516
42978,53500
42982,53516
42977,53522
42994,53518
42991,53518
42975,53529
42988,53533
42977,53522
42996,53544
43006,53539
43001,53550
43009,53545
43003,53560
43013,53559
43012,53571
43023,53556
43009,53567
43011,53562
43025,53578
43015,53585
43006,53582
43024,53586
43022,53593
43020,53589
43009,53605
43010,53605
43015,53604
43017,53600
43016,53557
42994,53536
42965,53500
42971,53464
42945,53429
42930,53404
42938,53360
42923,53344
42914,53313
42907,53299
42927,53299
42913,53284
42914,53293
42910,53283
42924,53287
42905,53285
42917,53276
42910,53275
42907,53284
42906,53280
42915,53264
42905,53271
42913,53254
42914,53249
42903,53234
42895,53224
42912,53216
42907,53214
42889,53217
42888,53197
42905,53218
42898,53199
42889,53199
42889,53208
42889,53198
42902,53215
42893,53190
42897,53214
42903,53220
42904,53192
42878,53207
42886,53200
42873,53189
42881,53187
42876,53178
42884,53154
42877,53172
42866,53185
42876,53171
42879,53166
42870,53156
42881,53170
42879,53162
42879,53170
42882,53180
42890,53172
42893,53192
42876,53186
42872,53178
42889,53179
42886,53202
42878,53200
42894,53200
42894,53215
42888,53215
42888,53211
42888,53220
42902,53206
42893,53221
42904,53214
42890,53218
42898,53233
42900,53240
42913,53222
42905,53219
42905,53246
42906,53249
42907,53247
42918,53242
42921,53255
42902,53252
42905,53253
42925,53272
42898,53246
42920,53275
42911,53273
42918,53274
42917,53296
42911,53280
42930,53283
42921,53302
42933,53302
42925,53287
42924,53315
42934,53316
42930,53317
42921,53327
42934,53317
42940,53329
42941,53330
42933,53336
42941,53342
42933,53360
42934,53357
42945,53356
42940,53378
42944,53359
42946,53387
42950,53375
42962,53377
42968,53403
42952,53403
42966,53406
42967,53414
42966,53419
42977,53419
42976,53421
42967,53447
42974,53463
42976,53460
42989,53452
42975,53468
42992,53476
42999,53473
42983,53477
42995,53483
42977,53451
42976,53439
42957,53400
42933,53373
42924,53337
42922,53293
42904,53278
42914,53240
42896,53235
42892,53226
42890,53177
42906,53202
42899,53226
42909,53217
42904,53234
42905,53232
42910,53239
42908,53250
42920,53228
42904,53246
42935,53242
42910,53244
42909,53238
42912,53240
42900,53237
42920,53257
42915,53239
42909,53196
42901,53176
42904,53214
42895,53210
42889,53206
42904,53223
42911,53231
42915,53241
42920,53237
42914,53253
42928,53229
42930,53250
42900,53230
42882,53248
42892,53226
42899,53243
42894,53244
42903,53241
42903,53245
42903,53247
42931,53255
42910,53249
42912,53246
42926,53271
42920,53261
42914,53271
42927,53268
42925,53254
42937,53282
42918,53274
42916,53291
42912,53290
42915,53296
42931,53304
42939,53323
42926,53294
42925,53316
42931,53312
42946,53330
42920,53330
42951,53337
42947,53347
42932,53349
42947,53351
42943,53358
42949,53359
42945,53359
42950,53362
42950,53363
42956,53382
42957,53384
42945,53395
42964,53397
42958,53395
42962,53401
42983,53394
42973,53431
42974,53426
42963,53433
42971,53427
42977,53442
42966,53438
42971,53433
42969,53455
42971,53468
42986,53473
42996,53465
42985,53479
42980,53478
42993,53489
43001,53496
42999,53501
42983,53505
43001,53492
43003,53513
43007,53520
43019,53530
43011,53526
43001,53536
43014,53547
43008,53542
43018,53569
43028,53554
43007,53554
43012,53564
43018,53578
43016,53576
43030,53581
43029,53596
43021,53602
43016,53593
43024,53586
42992,53568
43004,53522
42977,53503
42978,53463
42960,53446
42961,53409
42961,53401
42927,53371
42940,53375
42923,53369
42940,53367
42942,53384
42950,53376
42946,53379
42956,53375
42950,53386
42955,53382
42959,53395
42950,53396
42943,53409
42952,53412
42952,53395
42949,53395
42948,53389
42953,53390
42943,53373
42925,53372
42939,53387
42938,53379
42930,53382
42949,53385
42946,53401
42948,53384
42950,53382
42941,53388
42938,53385
42944,53388
42928,53377
42947,53375
42958,53362
42937,53368
42925,53387
42926,53366
42936,53371
42934,53367
42932,53363
42930,53365
42935,53374
42939,53375
42934,53370
42923,53380
42943,53380
42929,53375
42934,53376
42939,53395
42931,53392
42947,53397
42941,53413
42940,53416
42952,53424
42943,53399
42931,53415
42953,53418
42949,53429
42944,53416
42955,53416
42949,53420
42950,53435
42949,53423
42958,53420
42966,53438
42947,53439
42956,53439
42961,53439
42956,53452
42962,53453
42960,53448
42964,53455
42955,53459
42961,53466
42973,53481
42974,53477
42980,53480
42971,53491
42981,53495
42972,53500
42963,53489
42983,53501
42975,53502
42984,53502
42978,53491
42955,53482
42942,53449
42942,53431
42932,53398
42938,53365
42922,53357
42905,53319
42889,53289
42894,53262
42909,53272
42906,53258
42905,53262
42891,53247
42892,53263
42888,53262
42901,53259
42911,53253
42889,53247
42891,53250
42896,53245
42891,53248
42892,53220
42877,53224
42890,53223
42883,53223
42865,53213
42874,53186
42871,53190
42876,53188
42860,53178
42865,53191
42875,53175
42874,53187
42878,53186
42889,53183
42873,53187
42886,53188
42881,53208
42885,53199
42855,53181
42875,53176
42872,53172
42865,53182
42863,53168
42858,53178
42868,53169
42871,53162
42868,53165
42860,53175
42854,53185
42865,53215
42874,53176
42858,53166
42887,53166
42865,53165
42857,53167
42869,53195
42871,53196
42864,53202
42895,53191
42886,53205
42872,53194
42893,53208
42879,53207
42870,53220
42859,53225
42877,53211
42878,53226
42899,53234
42885,53245
42900,53215
42896,53217
42886,53235
42894,53234
42891,53255
42891,53257
42897,53270
42894,53259
42895,53272
42893,53264
42912,53265
42907,53274
42907,53285
42881,53282
42909,53287
42896,53299
42913,53318
42916,53300
42928,53304
42927,53318
42934,53321
42925,53326
42919,53325
42933,53338
42937,53335
42933,53337
42925,53353
42923,53362
42926,53342
42930,53362
42941,53376
42938,53383
42943,53397
42956,53373
42934,53399
42952,53389
42948,53402
42956,53400
42943,53403
42957,53410
42955,53426
42966,53427
42961,53438
42966,53434
42972,53436
42982,53450
42969,53461
42967,53453
42971,53466
42963,53475
42972,53468
42984,53469
42975,53491
42979,53498
42983,53498
42984,53509
43007,53504
42990,53504
42989,53502
42966,53484
42966,53448
42941,53416
42931,53373
42924,53350
42909,53322
42901,53300
42900,53266
42894,53245
42898,53240
42891,53240
42890,53218
42885,53219
42913,53246
42896,53232
42903,53222
42914,53244
42903,53237
42910,53235
42908,53239
42902,53238
42896,53241
42892,53220
42886,53218
42878,53216
42882,53208
42884,53189
42882,53195
42883,53183
42889,53182
42870,53203
42898,53192
42885,53211
42882,53194
42882,53190
42880,53208
42887,53203
42880,53200
42881,53200
42884,53192
42877,53206
42867,53197
42873,53187
42870,53176
42876,53162
42877,53166
42874,53166
42873,53185
42874,53188
42875,53177
42887,53182
42871,53167
42859,53178
42871,53192
42899,53194
42887,53189
42894,53207
42886,53198
42900,53192
42883,53200
42888,53203
42876,53208
42898,53212
42891,53202
42901,53222
42878,53212
42874,53238
42892,53230
42887,53246
42901,53231
42900,53225
42887,53237
42891,53227
42896,53249
42904,53238
42916,53239
42902,53250
42892,53261
42903,53248
42905,53256
42906,53264
42903,53272
42898,53274
42918,53278
42908,53278
42911,53281
42903,53279
42909,53265
42916,53297
42922,53293
42919,53293
42917,53301
42916,53306
42914,53307
42925,53310
42927,53293
42922,53319
42921,53320
42916,53332
42925,53350
42931,53342
42946,53332
42926,53345
42931,53336
42945,53338
42944,53370
42931,53357
42946,53359
42947,53379
42936,53382
42939,53372
42941,53368
42912,53339
42895,53306
42906,53258
42880,53203
42865,53196
42865,53156
42850,53131
42840,53118
42853,53111
42859,53082
42843,53093
42845,53080
42854,53080
42841,53075
42843,53073
42844,53074
42842,53087
42845,53078
42834,53076
42839,53071
42848,53055
42845,53060
42829,53054
42849,53048
42832,53020
42818,53014
42830,53010
42810,52991
42818,53017
42819,52999
42836,53023
42824,53012
42828,53013
42832,53021
42812,53015
42830,53009
42817,53026
42807,53028
42828,53031
42829,53006
42814,52993
42822,53009
42819,53001
42821,52989
42812,53003
42801,52992
42810,52989
42803,52987
42809,52994
42813,52978
42795,52987
42802,52985
42804,52985
42802,53009
42793,52997
42822,53010
42810,53019
42811,53004
42811,53013
42818,53032
42824,53054
42810,53027
42834,53036
42822,53061
42809,53019
42819,53060
42830,53060
42833,53065
42844,53065
42829,53072
42839,53074
42838,53083
42845,53082
42836,53079
42848,53079
42842,53091
42846,53090
42841,53092
42846,53108
42851,53149
42854,53131
42867,53096
42885,53114
42855,53131
42865,53132
42863,53139
42874,53151
42879,53155
42871,53162
42890,53177
42892,53174
42904,53168
42915,53183
42886,53187
42869,53192
42870,53202
42875,53196
42902,53208
42903,53236
42899,53231
42897,53233
42905,53241
42909,53263
42911,53250
42921,53260
42893,53266
42913,53268
42913,53284
42906,53280
42917,53288
42933,53291
42918,53296
42913,53304
42933,53308
42926,53323
42934,53315
42929,53334
42942,53333
42944,53345
42953,53362
42957,53351
42943,53367
42958,53353
42947,53382
42941,53395
42942,53376
42927,53345
42924,53309
42917,53263
42908,53240
42886,53209
42885,53169
42864,53132
42873,53124
42851,53116
42850,53091
42837,53086
42849,53088
42854,53072
42864,53096
42853,53087
42858,53089
42852,53089
42867,53074
42876,53077
42849,53077
42864,53094
42838,53095
42849,53087
42853,53081
42844,53069
42837,53068
42837,53065
42840,53055
42838,53048
42837,53039
42827,53055
42842,53044
42839,53048
42849,53046
42832,53044
42850,53066
42846,53053
42844,53067
42851,53075
42834,53053
42856,53048
42846,53068
42848,53052
42847,53038
42834,53044
42851,53063
42837,53040
42839,53038
42840,53058
42828,53049
42845,53050
42841,53037
42835,53050
42843,53046
42855,53056
42848,53058
42851,53077
42836,53078
42846,53078
42849,53076
42852,53087
42855,53099
42852,53101
42859,53098
42870,53102
42860,53103
42860,53101
42853,53122
42870,53114
42881,53109
42858,53128
42871,53131
42869,53142
42880,53124
42872,53143
42873,53136
42878,53149
42877,53138
42875,53149
42878,53159
42894,53164
42887,53160
42889,53176
42878,53166
42894,53187
42888,53173
42893,53184
42895,53194
42897,53192
42893,53210
42891,53204
42895,53194
42890,53211
42903,53219
42919,53236
42911,53232
42898,53236
42911,53247
42911,53253
42914,53257
42904,53245
42907,53259
42908,53264
42915,53266
42919,53255
42939,53274
42932,53292
42924,53288
42923,53281
42937,53303
42933,53303
42936,53314
42948,53317
42937,53308
42962,53340
42946,53334
42958,53356
42943,53334
42939,53333
42924,53314
42920,53274
42911,53243
42890,53239
42879,53171
42881,53155
42864,53106
42865,53091
42848,53068
42853,53057
42854,53059
42849,53042
42833,53045
42841,53043
42832,53042
42844,53041
42839,53052
42849,53043
42859,53043
42854,53034
42839,53045
42856,53044
42839,53037
42839,53028
42832,53029
42828,53009
42828,53019
42836,53004
42831,53014
42825,52991
42834,53005
42837,53007
42833,53005
42830,53026
42834,53011
42841,53006
42834,53024
42833,53006
42839,53019
42826,52994
42831,53011
42827,53005
42837,53000
42831,52994
42834,52991
42830,52999
42824,52983
42818,52992
42837,52997
42822,52993
42833,53004
42842,52994
42840,53003
42838,53011
42845,53019
42848,53017
42841,53022
42835,53009
42852,53038
42851,53024
42842,53062
42860,53032
42846,53054
42859,53045
42856,53060
42853,53057
42859,53065
42861,53081
42854,53076
42850,53091
42864,53057
42856,53074
42865,53083
42859,53087
42881,53086
42875,53087
42861,53100
42865,53102
42872,53108
42887,53103
42870,53114
42891,53108
42885,53139
42873,53136
42881,53130
42888,53148
42888,53153
42882,53167
42884,53181
42906,53135
42898,53137
42888,53148
42896,53175
42906,53198
42907,53186
42914,53197
42904,53215
42901,53193
42909,53199
42945,53236
42949,53225
42918,53220
42894,53238
42919,53230
42910,53239
42921,53252
42927,53262
42919,53268
42926,53266
42937,53267
42941,53289
42919,53296
42926,53290
42952,53302
42932,53291
42942,53316
42956,53321
42936,53319
42961,53330
42940,53331
42941,53320
42934,53286
42913,53261
42905,53222
42894,53188
42891,53135
42881,53111
42863,53079
42877,53060
42844,53031
42839,53023
42849,52992
42845,53006
42852,53008
42838,53013
42849,53011
42841,52989
42849,53007
42849,53004
42837,53001
42838,52987
42848,52986
42834,53011
42850,53002
42827,52989
42808,52984
42829,52950
42836,52948
42824,52957
42826,52924
42821,52932
42824,52945
42821,52944
42833,52951
42829,52952
42820,52959
42823,52949
42836,52951
42833,52965
42833,52951
42832,52953
42835,52953
42823,52948
42816,52940
42843,52931
42819,52945
42848,52927
42834,52945
42832,52943
42841,52939
42829,52939
42835,52942
42829,52942
42831,52956
42840,52966
42840,52953
42829,52971
42838,52964
42841,52962
42829,52964
42862,52990
42845,53001
42852,52985
42852,52987
42853,52988
42853,53006
42849,53022
42865,53030
42862,53029
42869,53015
42860,53036
42861,53038
42866,53038
42871,53045
42877,53057
42880,53059
42883,53061
42878,53066
42881,53055
42877,53074
42884,53067
42901,53099
42886,53092
42892,53087
42908,53094
42900,53100
42890,53109
42907,53112
42912,53124
42916,53127
42903,53122
42914,53131
42915,53132
42910,53143
42919,53154
42935,53164
42926,53168
42929,53175
42917,53180
42919,53184
42926,53191
42937,53204
42951,53204
42927,53219
42947,53223
42942,53210
42940,53231
42951,53244
42948,53246
42950,53253
42956,53253
42957,53270
42970,53276
42964,53283
42969,53286
42978,53302
42965,53287
42985,53308
42986,53312
42971,53312
42999,53334
42990,53329
42993,53341
42988,53324
42989,53304
42973,53295
42967,53262
42936,53215
42914,53164
42919,53136
42906,53102
42900,53090
42879,53067
42907,53043
42881,53029
42872,53025
42877,52997
42890,53008
42877,53011
42883,52998
42873,53002
42890,53027
42885,53010
42874,53021
42888,53022
42890,53013
42899,53039
42905,53007
42886,53005
42867,53012
42887,52991
42875,52997
42885,52986
42880,52964
42880,52974
42881,52985
42884,52978
42874,52982
42877,52993
42871,52996
42870,52997
42861,52992
42888,52985
42886,52986
42879,52969
42881,52969
42879,52967
42873,52960
42868,52964
42874,52965
42877,52969
42872,52968
42871,52971
42867,52968
42877,52967
42882,52977
42875,52973
42874,52970
42881,52973
42875,52977
42882,52989
42898,52993
42899,52998
42894,53000
42904,52998
42885,52997
42881,53023
42886,53029
42890,53020
42903,53023
42910,53033
42899,53039
42901,53044
42898,53017
42916,53056
42910,53045
42915,53047
42911,53059
42922,53067
42932,53065
42923,53083
42923,53083
42927,53077
42940,53104
42935,53131
42936,53097
42934,53112
42943,53110
42948,53107
42940,53134
42939,53123
42947,53129
42951,53137
42944,53149
42956,53162
42957,53152
42965,53176
42959,53164
42961,53151
42886,53029
42956,53193
42963,53200
42969,53218
42948,53197
42990,53175
42969,53191
42978,53210
42976,53217
42977,53216
42972,53220
42977,53220
42976,53232
42992,53249
42996,53253
43021,53263
42988,53261
42955,53273
42936,53097
43001,53275
42983,53281
42983,53280
42991,53258
42978,53251
42971,53213
42956,53180
42951,53119
42913,53096
42928,53064
42905,53025
42894,52991
42895,52981
42895,52960
42889,52947
42885,52940
42887,52943
42905,52937
42897,52940
42893,52928
42880,52926
42885,52941
42896,52923
42895,52929
42898,52921
42894,52918
42873,52921
42879,52895
42858,52895
42876,52881
42863,52870
42876,52862
42864,52878
42868,52859
42858,52869
42877,52863
42866,52846
42876,52861
42868,52857
42877,52872
42865,52870
42885,52885
42882,52883
42891,52880
42883,52866
42869,52862
42885,52880
42875,52869
42871,52870
42881,52862
42876,52856
42879,52855
42876,52874
42878,52864
42879,52849
42888,52868
42877,52860
42878,52868
42881,52884
42883,52876
42886,52884
42910,52890
42904,52893
42903,52900
42885,52907
42908,52910
42904,52916
42913,52912
42904,52938
42915,52932
42907,52945
42904,52946
42923,52938
42917,52958
42929,52950
42935,52957
42929,52953
42926,52974
42931,52982
42934,52966
42946,52983
42929,53005
42943,52995
42945,53012
42930,53007
42939,53013
42945,53016
42958,53039
42948,53024
42961,53034
42967,53049
42947,53041
42964,53058
42971,53071
42965,53058
42970,53072
42983,53093
42971,53096
42976,53099
42978,53105
42977,53099
42982,53107
42992,53110
42995,53112
42999,53120
43001,53139
43005,53160
43003,53132
42999,53156
43011,53168
43017,53160
43004,53183
42993,53181
43019,53189
43009,53191
43028,53205
43038,53214
43008,53218
43028,53231
43018,53242
43037,53235
43046,53235
43035,53261
43043,53261
43051,53278
43048,53273
43040,53280
43064,53288
43056,53306
43046,53290
43036,53267
43032,53227
43021,53182
43013,53159
42979,53108
42968,53064
42968,53044
42940,53013
42936,52991
42951,52964
42948,52948
42934,52961
42945,52942
42936,52932
42957,52930
42945,52944
42951,52951
42943,52938
42939,52950
42942,52955
42936,52947
42951,52951
42943,52944
42925,52933
42947,52935
42937,52925
42940,52909
42920,52910
42914,52886
42928,52905
42914,52899
42922,52893
42915,52899
42929,52892
42927,52900
42914,52902
42935,52901
42930,52905
42948,52909
42933,52890
42930,52886
42927,52895
42925,52883
42927,52892
42924,52881
42923,52883
42913,52880
42911,52874
42914,52887
42933,52877
42937,52870
42940,52870
42944,52875
42937,52895
42948,52904
42928,52893
42934,52914
42939,52909
42960,52911
42938,52920
42947,52915
42967,52935
42947,52927
42952,52946
42955,52946
42960,52956
42961,52950
42956,52961
42969,52972
42975,52961
42956,52967
42978,52962
42964,52985
42981,52992
42970,52979
42980,53008
42967,52984
42988,53009
42986,52986
42976,53005
42989,53018
42984,53023
42974,53014
42973,53040
42990,53040
42987,53037
42999,53053
43000,53051
43008,53053
42978,53041
42982,53020
42966,52960
42963,52951
42960,52921
42944,52878
42927,52838
42928,52823
42920,52786
42906,52778
42902,52751
42908,52750
42930,52745
42885,52735
42917,52738
42902,52736
42894,52738
42892,52754
42896,52738
42905,52714
42889,52698
42902,52722
42897,52696
42893,52688
42896,52702
42888,52686
42878,52695
42898,52688
42896,52666
42917,52679
42912,52685
42881,52696
42880,52700
42875,52706
42893,52713
42892,52718
42905,52701
42913,52726
42920,52696
42905,52710
42914,52713
42904,52699
42921,52695
42897,52690
42909,52695
42909,52679
42926,52699
42905,52713
42922,52711
42923,52704
42915,52712
42916,52724
42930,52726
42916,52738
42929,52746
42932,52750
42938,52750
42937,52736
42936,52780
42939,52774
42940,52763
42941,52784
42959,52800
42950,52802
42963,52790
42946,52810
42975,52822
42963,52825
42961,52825
42964,52841
42964,52843
42963,52847
42980,52841
42987,52849
42974,52848
42994,52849
42984,52872
42985,52887
42975,52888
42980,52870
42986,52883
42997,52910
42991,52909
43005,52915
43000,52910
43006,52921
43013,52930
43000,52941
43016,52939
43006,52945
43012,52945
43012,52962
43022,52976
43020,52977
43032,52978
43027,52992
43026,52998
43033,52997
43027,53011
43041,53032
43052,53013
43036,53025
43045,53038
43051,53030
43049,53047
43058,53062
43067,53077
43058,53065
43055,53078
43066,53076
43073,53104
43073,53100
43076,53095
43084,53116
43069,53123
43095,53115
43080,53126
43086,53138
43099,53140
43086,53160
43081,53171
43091,53159
43113,53178
43098,53188
43096,53170
43086,53129
43069,53094
43071,53061
43049,53036
43043,52988
43021,52955
43007,52917
43000,52878
43004,52873
42996,52876
42994,52840
42996,52848
42995,52859
43013,52847
43001,52851
43000,52847
42996,52827
43006,52851
43009,52853
42996,52837
43018,52831
42996,52854
42998,52837
42995,52828
42998,52825
42991,52813
42991,52814
42990,52819
43003,52794
42995,52799
42983,52791
42997,52814
43001,52815
42988,52807
42997,52810
42996,52829
42995,52829
43013,52842
43004,52821
43014,52826
42998,52832
43002,52821
43001,52815
43005,52828
42994,52811
43014,52826
42999,52793
42988,52820
43018,52823
42994,52821
42991,52827
43011,52837
43007,52842
43021,52821
43023,52851
43021,52853
43009,52856
43023,52873
43020,52879
43037,52876
43024,52879
43035,52897
43040,52895
43037,52903
43040,52917
43053,52907
43049,52929
43046,52905
43043,52931
43048,52941
43075,52934
43043,52947
43057,52950
43068,52968
43066,52967
43061,52979
43077,52985
43083,52978
43074,52973
43073,52986
43072,53013
43074,53005
43078,52995
43095,53019
43087,53028
43084,53030
43098,53043
43095,53046
43098,53048
43117,53045
43098,53053
43088,53062
43108,53049
43095,53068
43112,53083
43093,53085
43114,53096
43110,53091
43101,53103
43105,53092
43120,53111
43123,53121
43129,53123
43116,53127
43121,53124
43143,53146
43138,53147
43153,53153
43144,53154
43132,53169
43130,53177
43158,53180
43156,53199
43160,53199
43164,53203
43144,53179
43137,53169
43120,53128
43113,53081
43091,53046
43097,53017
43079,53010
43072,52971
43055,52948
43057,52930
43037,52935
43069,52916
43067,52917
43074,52898
43052,52920
43074,52905
43054,52908
43055,52917
43076,52917
43058,52932
43077,52921
43062,52904
43085,52905
43048,52898
43072,52910
43075,52889
43058,52885
43027,52880
43065,52896
43049,52901
43059,52904
43066,52901
43047,52871
43067,52888
43065,52890
43064,52904
43056,52885
43065,52897
43057,52884
43051,52872
43052,52881
43062,52873
43076,52889
43066,52876
43018,52884
43074,52898
43050,52890
43049,52887
43061,52880
43045,52880
43072,52885
43060,52903
43067,52918
43051,52904
43074,52895
43067,52909
43081,52926
43084,52928
43074,52924
43079,52925
43083,52939
43088,52947
43085,52961
43090,52959
43103,52986
43091,52992
43114,52983
43098,52993
43094,52973
43101,52989
43098,52997
43102,53004
43118,53016
43110,53010
43118,53020
43130,53044
43127,53033
43117,53029
43118,53049
43119,53059
43129,53039
43114,53066
43119,53056
43130,53066
43130,53067
43141,53080
43146,53080
43147,53087
43134,53101
43126,53082
43127,53085
43122,53065
43120,53046
43108,53034
43097,52977
43093,52954
43094,52929
43085,52919
43050,52868
43056,52854
43059,52841
43046,52828
43064,52828
43046,52828
43057,52827
43054,52834
43058,52819
43063,52826
43048,52829
43038,52809
43048,52815
43036,52760
43056,52778
43044,52775
43058,52773
43064,52779
43048,52770
43055,52794
43055,52789
43067,52794
43066,52803
43054,52809
43064,52815
43074,52815
43065,52823
43086,52840
43083,52839
43075,52836
43087,52856
43079,52862
43098,52860
43088,52881
43093,52863
43101,52879
43085,52873
43098,52875
43108,52902
43103,52892
43114,52901
43112,52911
43125,52918
43106,52921
43110,52931
43123,52937
43126,52935
43128,52939
43124,52961
43120,52964
43142,52971
43131,52967
43120,52971
43140,52985
43137,52985
43150,52991
43141,53022
43135,53014
43150,53004
43150,53026
43158,53005
43149,53037
43170,53046
43164,53058
43155,53052
43160,53071
43177,53066
43181,53068
43177,53098
43184,53097
43200,53098
43188,53112
43174,53124
43201,53135
43200,53136
43188,53149
43201,53132
43206,53143
43205,53152
43210,53177
43210,53174
43215,53178
43229,53191
43218,53203
43216,53206
43218,53213
43237,53217
43241,53225
43237,53229
43242,53244
43254,53245
43252,53255
43232,53257
43263,53272
43243,53273
43248,53287
43259,53290
43248,53293
43260,53303
43252,53298
43246,53297
43227,53269
43219,53223
43210,53186
43188,53137
43177,53102
43176,53076
43162,53045
43164,53025
43165,53019
43153,52996
43155,52990
43149,52983
43136,52988
43164,52982
43164,52986
43165,52985
43158,52982
43158,53005
43164,52995
43170,52989
43169,52987
43155,52986
43160,52967
43153,52955
43149,52953
43140,52949
43143,52937
43139,52934
43144,52923
43142,52919
43145,52937
43147,52931
43155,52937
43154,52947
43153,52949
43155,52952
43158,52961
43157,52950
43150,52939
43155,52938
43137,52939
43141,52922
43140,52939
43143,52945
43142,52934
43152,52926
43140,52926
43150,52916
43150,52929
43147,52934
43134,52926
43146,52924
43147,52942
43170,52938
43146,52954
43156,52952
43165,52948
43156,52960
43143,52967
43168,52964
43161,53000
43174,52999
43175,53008
43168,52971
43181,52978
43188,52986
43177,53016
43183,53041
43181,53024
43192,53016
43192,53033
43178,53039
43189,53042
43234,53050
43214,53038
43184,53054
43158,53065
43204,53059
43203,53061
43208,53073
43211,53071
43206,53065
43219,53082
43199,53100
43221,53098
43219,53096
43220,53101
43209,53111
43210,53121
43224,53111
43205,53133
43232,53131
43236,53148
43220,53142
43229,53143
43232,53157
43232,53168
43228,53161
43240,53178
43247,53169
43242,53179
43243,53174
43254,53187
43241,53203
43238,53197
43251,53198
43255,53210
43264,53220
43247,53239
43271,53226
43265,53242
43266,53237
