42733,56090
42734,56009
42714,56036
42735,56033
42706,56045
42713,56056
42720,56040
42712,56056
42711,56041
42731,56045
42713,56044
42740,56036
42728,56046
42703,56034
42699,56039
42726,56016
42712,56011
42702,55983
42713,55982
42704,55974
42711,55990
42707,55981
42708,55960
42710,55971
42730,55982
42701,55969
42704,55968
42697,55973
42711,55975
42723,55973
42708,55967
42712,55977
42705,55984
42713,55976
42710,55958
42704,55963
42705,55970
42709,55972
42725,55960
42703,55948
42715,55955
42707,55943
42709,55942
42709,55947
42718,55942
42699,55967
42704,55957
42713,55946
42708,55949
42706,55961
42732,55966
42727,55952
42723,55955
42708,55954
42716,55956
42717,55961
42718,55961
42726,55968
42710,55966
42717,55963
42717,55969
42723,55968
42726,55962
42719,55961
42722,55975
42731,55942
42732,55983
42732,55975
42731,55977
42724,55961
42733,55967
42740,55973
42727,55974
42730,55980
42725,55983
42721,55978
42723,55972
42730,55980
42739,55988
42735,55984
42741,55976
42746,55987
42741,55990
42735,55985
42738,55983
42751,55996
42736,56001
42743,55984
42743,56015
42745,56009
42748,56007
42744,56024
42757,56005
42764,56000
42763,56013
42768,56015
42760,56008
42749,56028
42773,56016
42749,56018
42753,56039
42762,56024
42764,56028
42767,56034
42757,56033
42759,56037
42758,56045
42779,56045
42758,56049
42774,56056
42786,56058
42785,56050
42768,56006
42760,56016
42739,55995
42750,55991
42740,55937
42737,55929
42728,55916
42713,55901
42717,55882
42724,55898
42713,55868
42717,55868
42722,55882
42729,55863
42726,55885
42721,55869
42719,55875
42732,55882
42728,55866
42724,55876
42718,55851
42718,55863
42720,55861
42730,55849
42716,55858
42728,55843
42710,55837
42718,55824
42710,55813
42716,55828
42716,55821
42721,55812
42726,55815
42711,55823
42725,55822
42714,55831
42716,55822
42720,55814
42718,55830
42722,55815
42724,55815
42725,55808
42714,55813
42716,55804
42710,55792
42719,55807
42708,55816
42719,55795
42728,55786
42724,55792
42720,55801
42713,55799
42731,55791
42720,55797
42706,55807
42736,55817
42720,55799
42724,55805
42743,55814
42725,55788
42732,55817
42737,55803
42729,55814
42736,55838
42741,55809
42744,55817
42735,55807
42750,55820
42733,55829
42728,55822
42738,55816
42740,55849
42747,55842
42746,55842
42731,55828
42728,55829
42742,55836
42746,55830
42741,55839
42752,55832
42747,55829
42754,55843
42760,55834
42743,55836
42754,55841
42745,55844
42739,55848
42745,55856
42750,55855
42761,55858
42749,55855
42754,55861
42755,55856
42753,55863
42756,55866
42761,55857
42780,55859
42767,55848
42752,55878
42762,55884
42769,55870
42750,55875
42759,55888
42760,55892
42752,55890
42774,55875
42770,55897
42781,55894
42776,55893
42793,55909
42787,55900
42780,55909
42764,55906
42773,55900
42773,55920
42782,55920
42777,55910
42779,55934
42796,55914
42791,55922
42773,55931
42792,55943
42785,55942
42789,55937
42792,55911
42785,55941
42795,55947
42789,55935
42800,55947
42784,55937
42781,55912
42784,55877
42758,55863
42747,55830
42777,55824
42758,55820
42736,55779
42757,55793
42747,55806
42733,55796
42744,55773
42727,55770
42743,55749
42739,55767
42744,55786
42745,55775
42753,55784
42747,55780
42745,55757
42725,55744
42745,55767
42753,55748
42759,55750
42739,55736
42713,55731
42789,55937
42725,55736
42729,55716
42737,55717
42703,55729
42737,55725
42725,55736
42724,55733
42731,55739
42748,55729
42728,55745
42733,55731
42741,55739
42751,55735
42727,55733
42740,55743
42748,55730
42727,55722
42735,55728
42745,55710
42723,55709
42736,55722
42728,55717
42741,55712
42750,55716
42756,55728
42743,55712
42731,55721
42752,55714
42741,55739
42739,55734
42744,55726
42748,55749
42746,55732
42751,55743
42750,55731
42741,55746
42745,55745
42747,55756
42741,55751
42744,55749
42750,55742
42748,55745
42759,55762
42758,55751
42761,55739
42772,55760
42771,55765
42758,55774
42760,55768
42748,55763
42764,55769
42759,55789
42763,55766
42766,55772
42765,55775
42775,55777
42773,55777
42771,55790
42779,55777
42770,55803
42786,55798
42782,55802
42774,55809
42772,55803
42774,55798
42789,55822
42780,55806
42786,55801
42780,55807
42766,55818
42780,55815
42786,55820
42795,55820
42792,55826
42790,55833
42805,55841
42794,55840
42798,55855
42804,55843
42795,55850
42788,55831
42792,55860
42801,55871
42808,55864
42806,55860
42811,55878
42821,55873
42813,55871
42802,55891
42813,55863
42802,55894
42813,55906
42806,55903
42807,55897
42825,55896
42813,55907
42827,55892
42802,55908
42827,55914
42819,55906
42817,55911
42815,55923
42807,55918
42811,55896
42804,55856
42797,55835
42802,55832
42788,55815
42792,55807
42788,55797
42776,55782
42779,55794
42769,55795
42774,55777
42786,55782
42772,55801
42785,55778
42790,55787
42787,55797
42777,55777
42790,55784
42773,55789
42779,55788
42786,55783
42784,55779
42775,55768
42787,55773
42790,55772
42769,55758
42774,55747
42782,55762
42775,55753
42783,55760
42780,55746
42784,55750
42774,55764
42770,55759
42779,55746
42768,55762
42765,55764
42766,55760
42774,55756
42773,55762
42781,55762
42780,55747
42789,55751
42784,55738
42780,55759
42768,55744
42781,55737
42785,55744
42779,55747
42777,55737
42764,55739
42769,55752
42773,55763
42777,55735
42777,55745
42774,55756
42791,55758
42774,55754
42764,55746
42782,55760
42785,55788
42780,55761
42798,55774
42797,55771
42797,55786
42796,55768
42798,55776
42798,55778
42795,55780
42800,55783
42801,55785
42791,55763
42791,55775
42791,55783
42791,55767
42795,55797
42809,55795
42810,55795
42806,55775
42805,55800
42801,55801
42800,55802
42816,55799
42808,55809
42805,55809
42798,55814
42803,55793
42820,55809
42807,55819
42798,55827
42798,55809
42809,55807
42797,55801
42786,55776
42790,55770
42785,55742
42786,55735
42777,55698
42772,55700
42780,55696
42773,55690
42750,55674
42763,55679
42759,55675
42767,55680
42765,55668
42772,55692
42756,55680
42764,55684
42751,55676
42761,55675
42767,55674
42756,55662
42765,55661
42770,55666
42765,55667
42764,55640
42757,55642
42763,55636
42770,55644
42752,55636
42772,55627
42760,55645
42757,55650
42783,55661
42788,55646
42783,55687
42787,55672
42804,55666
42792,55677
42769,55667
42794,55684
42797,55703
42779,55694
42784,55671
42787,55629
42783,55628
42783,55650
42786,55647
42779,55663
42783,55646
42788,55650
42791,55663
42795,55652
42791,55664
42808,55662
42800,55663
42767,55674
42782,55679
42801,55676
42795,55670
42798,55664
42803,55668
42800,55664
42797,55671
42801,55679
42816,55675
42808,55694
42807,55682
42801,55672
42779,55666
42794,55676
42796,55680
42784,55657
42789,55669
42784,55657
42779,55646
42802,55661
42783,55669
42800,55668
42792,55684
42790,55704
42802,55694
42793,55690
42793,55689
42797,55685
42789,55697
42800,55706
42812,55707
42809,55707
42792,55700
42778,55706
42789,55683
42796,55713
42800,55724
42786,55710
42791,55720
42784,55706
42802,55732
42809,55722
42799,55738
42792,55738
42804,55744
42802,55745
42814,55758
42805,55759
42811,55754
42809,55762
42805,55772
42806,55767
42815,55780
42804,55775
42815,55780
42810,55778
42818,55799
42831,55790
42800,55788
42810,55783
42816,55800
42816,55802
42821,55809
42800,55813
42817,55810
42822,55816
42824,55812
42826,55823
42818,55819
42824,55822
42822,55824
42826,55837
42820,55822
42807,55837
42829,55838
42829,55836
42832,55841
42829,55852
42833,55830
42825,55809
42808,55797
42802,55785
42802,55753
42801,55744
42796,55725
42784,55732
42782,55716
42779,55712
42791,55716
42796,55713
42789,55710
42794,55731
42793,55731
42785,55719
42788,55714
42769,55725
42798,55735
42790,55729
42787,55730
42795,55718
42790,55718
42782,55710
42784,55707
42781,55711
42785,55697
42787,55707
42788,55710
42781,55700
42774,55703
42781,55716
42786,55704
42782,55718
42790,55717
42786,55720
42780,55733
42786,55730
42792,55713
42780,55712
42778,55736
42787,55723
42775,55727
42789,55709
42781,55715
42793,55723
42769,55708
42782,55717
42791,55720
42783,55716
42794,55707
42801,55721
42800,55725
42775,55730
42802,55718
42791,55738
42792,55725
42787,55728
42808,55753
42792,55726
42799,55735
42804,55744
42799,55749
42806,55761
42796,55750
42808,55760
42787,55767
42814,55769
42796,55776
42792,55767
42809,55764
42803,55765
42809,55763
42808,55765
42801,55770
42810,55786
42803,55781
42807,55779
42806,55785
42816,55787
42818,55803
42803,55798
42800,55800
42814,55799
42809,55798
42810,55814
42825,55802
42815,55814
42815,55816
42804,55808
42810,55812
42829,55819
42821,55826
42822,55817
42819,55823
42827,55844
42822,55828
42823,55848
42812,55831
42813,55829
42834,55852
42827,55851
42820,55862
42824,55853
42813,55845
42815,55854
42819,55846
42826,55860
42836,55874
42836,55873
42831,55862
42821,55871
42826,55882
42827,55882
42838,55904
42836,55885
42822,55893
42835,55889
42847,55914
42837,55901
42834,55906
42843,55902
42841,55884
42838,55909
42827,55907
42837,55899
42836,55897
42818,55897
42817,55864
42829,55846
42804,55848
42814,55840
42804,55846
42824,55824
42804,55821
42795,55840
42813,55814
42798,55830
42814,55819
42818,55848
42800,55836
42800,55834
42811,55843
42809,55834
42794,55806
42809,55847
42822,55831
42805,55842
42809,55846
42803,55822
42812,55830
42803,55819
42795,55839
42803,55826
42811,55837
42815,55829
42798,55817
42793,55854
42799,55874
42812,55829
42810,55825
42814,55811
42826,55826
42809,55862
42801,55856
42796,55853
42805,55850
42803,55861
42797,55853
42826,55857
42802,55859
42822,55863
42796,55872
42792,55857
42811,55843
42777,55857
42793,55858
42791,55861
42812,55873
42800,55873
42806,55867
42808,55869
42815,55880
42811,55867
42806,55895
42810,55896
42803,55886
42798,55883
42814,55891
42806,55895
42790,55882
42804,55878
42815,55920
42823,55906
42807,55902
42820,55894
42810,55912
42825,55926
42811,55908
42811,55905
42805,55913
42822,55922
42815,55916
42807,55926
42819,55932
42815,55925
42818,55918
42807,55928
42823,55938
42830,55921
42816,55939
42832,55940
42831,55935
42830,55963
42825,55948
42828,55958
42821,55957
42816,55971
42821,55962
42825,55960
42823,55969
42823,55987
42828,55977
42833,55963
42841,55997
42829,55982
42814,56000
42833,55997
42827,56008
42833,55992
42833,55993
42829,55998
42820,55984
42819,56001
42829,55999
42832,55990
42851,56005
42848,56029
42840,56009
42839,56034
42840,56028
42841,56031
42843,56035
42848,56034
42850,56045
42837,56055
42844,56048
42830,56044
42846,56050
42849,56045
42847,56045
42851,56068
42851,56063
42862,56052
42868,56080
42855,56101
42857,56082
42848,56097
42868,56076
42859,56077
42854,56079
42852,56058
42839,56062
42853,56052
42835,56033
42831,56019
42822,56010
42832,56007
42821,56015
42823,55994
42840,56002
42837,56009
42838,56015
42837,56010
42849,56026
42843,56027
42842,56021
42835,56021
42849,56035
42842,56035
42834,56026
42832,56019
42829,56030
42837,56030
42843,56032
42837,56005
42819,56006
42834,56005
42837,55994
42837,56006
42828,56003
42807,56023
42851,56021
42834,56033
42841,56030
42830,56042
42833,56038
42845,56043
42846,56043
42841,56041
42854,56041
42837,56029
42832,56056
42833,56057
42847,56063
42846,56054
42835,56049
42850,56077
42842,56066
42848,56060
42833,56067
42861,56087
42860,56074
42858,56076
42854,56059
42859,56081
42854,56090
42848,56080
42872,56090
42863,56087
42861,56084
42864,56097
42848,56101
42865,56107
42847,56095
42871,56105
42862,56097
42859,56116
42853,56105
42861,56108
42871,56109
42867,56123
42860,56121
42872,56106
42882,56121
42869,56101
42855,56126
42871,56131
42864,56126
42866,56128
42875,56114
42861,56121
42878,56144
42862,56130
42875,56115
42880,56138
42876,56141
42886,56155
42866,56160
42880,56163
42880,56147
42879,56149
42885,56166
42871,56163
42878,56157
42863,56154
42877,56167
42883,56184
42887,56164
42895,56182
42886,56172
42880,56203
42885,56178
42881,56205
42888,56184
42884,56190
42882,56185
42882,56196
42898,56207
42881,56199
42908,56212
42897,56216
42896,56226
42921,56236
42900,56222
42891,56233
42896,56223
42895,56226
42900,56220
42907,56223
42900,56244
42905,56244
42905,56235
42908,56248
42905,56256
42912,56245
42903,56269
42898,56252
42912,56251
42913,56270
42906,56269
42909,56256
42910,56236
42899,56238
42892,56206
42885,56197
42888,56190
42886,56185
42880,56186
42882,56177
42883,56184
42883,56199
42889,56194
42894,56192
42898,56208
42899,56211
42894,56192
42897,56209
42893,56213
42892,56245
42900,56244
42896,56245
42905,56228
42905,56213
42901,56173
42906,56200
42902,56196
42900,56211
42900,56204
42894,56217
42907,56214
42894,56203
42907,56223
42900,56226
42922,56225
42889,56228
42859,56225
42877,56226
42903,56235
42904,56235
42889,56218
42905,56233
42899,56239
42890,56232
42883,56229
42893,56228
42901,56235
42893,56231
42900,56247
42890,56238
42892,56248
42898,56254
42899,56247
42901,56242
42900,56235
42905,56237
42903,56252
42893,56234
42893,56256
42905,56254
42905,56260
42880,56265
42898,56258
42907,56272
42918,56273
42912,56272
42909,56262
42901,56272
42903,56277
42902,56281
42919,56267
42903,56270
42914,56267
42919,56281
42909,56265
42913,56290
42911,56298
42911,56290
42904,56300
42914,56292
42906,56297
42906,56310
42911,56309
42903,56306
42912,56301
42927,56332
42915,56311
42909,56305
42919,56296
42923,56320
42920,56317
42902,56324
42916,56320
42918,56331
42922,56321
42925,56337
42931,56344
42921,56331
42932,56333
42913,56342
42925,56345
42924,56350
42937,56343
42935,56344
42939,56366
42932,56342
42938,56370
42924,56358
42929,56369
42930,56363
42926,56373
42941,56363
42941,56374
42946,56377
42949,56382
42940,56397
42951,56388
42945,56381
42942,56386
42940,56383
42942,56379
42939,56386
42942,56418
42947,56399
42932,56391
42939,56392
42941,56397
42947,56378
42938,56366
42926,56359
42933,56346
42913,56326
42916,56316
42908,56315
42898,56310
42905,56289
42903,56291
42923,56306
42905,56296
42912,56312
42907,56318
42909,56305
42906,56313
42919,56313
42917,56322
42915,56327
42912,56312
42917,56312
42916,56311
42914,56310
42897,56297
42895,56307
42899,56289
42899,56278
42883,56277
42897,56289
42908,56284
42901,56279
42905,56309
42884,56274
42895,56285
42899,56305
42901,56297
42900,56288
42910,56300
42907,56310
42916,56310
42908,56315
42907,56300
42908,56297
42912,56306
42896,56312
42905,56295
42893,56295
42915,56295
42905,56314
42898,56301
42909,56306
42903,56296
42902,56304
42918,56293
42912,56306
42893,56335
42887,56310
42905,56311
42908,56315
42911,56314
42909,56327
42909,56335
42899,56326
42915,56332
42910,56327
42891,56329
42892,56320
42900,56326
42897,56332
42904,56342
42915,56335
42909,56334
42901,56347
42888,56323
42905,56338
42911,56346
42910,56331
42905,56334
42898,56324
42894,56342
42920,56349
42913,56334
42922,56352
42901,56337
42902,56344
42919,56337
42913,56365
42920,56359
42907,56379
42933,56372
42924,56368
42902,56364
42903,56364
42911,56373
42921,56377
42912,56373
42920,56378
42918,56373
42918,56363
42927,56380
42934,56374
42930,56368
42929,56384
42928,56385
42914,56386
42941,56398
42918,56398
42907,56386
42926,56397
42917,56399
42916,56391
42928,56398
42925,56401
42923,56392
42925,56416
42944,56430
42933,56425
42930,56419
42938,56418
42933,56430
42926,56429
42927,56424
42935,56429
42931,56431
42940,56435
42934,56435
42922,56434
42954,56461
42930,56461
42937,56445
42929,56458
42932,56454
42928,56421
42946,56438
42939,56472
42928,56460
42949,56460
42958,56458
42961,56452
42938,56452
42929,56426
42918,56418
42933,56396
42912,56374
42919,56365
42900,56351
42914,56378
42902,56377
42913,56335
42913,56309
42915,56334
42900,56357
42920,56370
42918,56367
42925,56385
42931,56375
42911,56386
42921,56367
42922,56366
42936,56373
42933,56347
42910,56349
42889,56360
42882,56345
42896,56335
42908,56358
42899,56342
42899,56356
42910,56358
42909,56347
42910,56349
42911,56372
42894,56374
42907,56348
42907,56376
42913,56351
42917,56360
42909,56376
42917,56355
42903,56358
42894,56370
42899,56361
42910,56354
42903,56364
42906,56344
42908,56358
42884,56363
42912,56343
42917,56356
42903,56366
42896,56367
42902,56359
42907,56363
42915,56372
42896,56367
42907,56369
42917,56372
42920,56367
42911,56370
42904,56372
42903,56377
42906,56400
42915,56378
42902,56384
42904,56397
42905,56390
42917,56389
42910,56383
42914,56391
42922,56374
42908,56394
42903,56385
42924,56404
42901,56393
42919,56402
42908,56398
42905,56411
42906,56382
42914,56417
42907,56405
42915,56416
42911,56417
42925,56410
42907,56426
42916,56419
42924,56415
42911,56409
42915,56416
42913,56422
42917,56418
42913,56431
42913,56410
42927,56433
42913,56438
42924,56410
42937,56432
42916,56438
42907,56430
42920,56429
42921,56443
42900,56429
42916,56438
42928,56420
42923,56430
42917,56436
42925,56442
42921,56451
42918,56453
42911,56448
42927,56436
42922,56455
42926,56454
42919,56461
42911,56470
42937,56471
42920,56460
42921,56459
42907,56461
42912,56451
42922,56426
42917,56417
42907,56393
42906,56385
42899,56363
42884,56365
42899,56358
42895,56355
42890,56366
42880,56368
42902,56373
42902,56366
42899,56363
42898,56372
42901,56361
42882,56376
42885,56376
42895,56371
42890,56357
42878,56368
42892,56347
42882,56340
42887,56354
42881,56345
42886,56333
42889,56337
42880,56334
42866,56337
42871,56339
42884,56343
42872,56349
42876,56354
42879,56356
42854,56349
42883,56342
42888,56336
42863,56357
42882,56340
42879,56336
42869,56342
42870,56349
42862,56331
42868,56338
42886,56336
42884,56341
42869,56338
42874,56327
42873,56348
42875,56340
42875,56346
42874,56349
42885,56344
42886,56331
42864,56352
42873,56333
42874,56351
42867,56357
42877,56357
42869,56360
42875,56356
42882,56367
42884,56370
42868,56352
42875,56352
42892,56355
42878,56370
42879,56374
42882,56365
42883,56347
42878,56362
42862,56367
42885,56359
42880,56371
42857,56371
42864,56375
42896,56384
42870,56375
42874,56382
42879,56384
42881,56386
42883,56370
42879,56383
42880,56380
42874,56396
42863,56396
42882,56393
42872,56397
42892,56407
42880,56394
42891,56395
42887,56409
42886,56402
42883,56394
42886,56397
42889,56397
42882,56402
42875,56409
42876,56412
42883,56411
42891,56407
42899,56408
42884,56411
42896,56429
42896,56421
42896,56414
42878,56415
42877,56431
42897,56436
42873,56436
42878,56422
42909,56431
42892,56450
42900,56444
42913,56435
42891,56453
42894,56439
42895,56437
42907,56447
42901,56464
42897,56459
42898,56444
42898,56473
42905,56472
42899,56447
42899,56456
42900,56464
42898,56452
42912,56474
42900,56482
42890,56488
42897,56481
42899,56480
42905,56467
42905,56445
42880,56436
42891,56393
42891,56396
42863,56388
42850,56361
42869,56384
42866,56404
42863,56394
42876,56358
42870,56330
42855,56367
42878,56374
42869,56381
42873,56392
42876,56372
42867,56369
42857,56362
42880,56355
42866,56361
42894,56373
42864,56349
42839,56350
42829,56339
42850,56327
42853,56347
42866,56354
42872,56334
42860,56342
42845,56343
42866,56350
42863,56349
42863,56353
42863,56352
42851,56371
42866,56364
42856,56350
42870,56354
42842,56356
42854,56350
42847,56372
42852,56352
42854,56353
42848,56355
42853,56365
42844,56345
42852,56353
42874,56351
42858,56361
42851,56359
42864,56354
42857,56357
42861,56360
42866,56358
42871,56358
42861,56362
42860,56382
42866,56360
42851,56362
42863,56363
42855,56367
42862,56363
42873,56367
42866,56372
42851,56383
42854,56380
42859,56384
42861,56375
42868,56384
42875,56389
42868,56366
42869,56392
42863,56392
42866,56399
42874,56382
42866,56375
42861,56388
42873,56403
42875,56390
42879,56384
42873,56399
42857,56396
42874,56413
42857,56405
42867,56409
42883,56404
42872,56399
42867,56400
42863,56416
42865,56421
42875,56439
42871,56410
42880,56416
42865,56428
42894,56437
42880,56425
42895,56444
42878,56430
42884,56428
42876,56434
42890,56441
42891,56429
42887,56439
42885,56443
42883,56467
42899,56450
42895,56440
42883,56462
42891,56459
42899,56454
42885,56462
42903,56476
42894,56471
42893,56465
42902,56477
42895,56475
42889,56480
42895,56491
42891,56474
42889,56481
42900,56500
42906,56482
42901,56486
42903,56481
42908,56491
42907,56509
42893,56504
42919,56494
42903,56494
42890,56488
42892,56469
42890,56461
42869,56441
42870,56414
42874,56418
42875,56392
42870,56399
42860,56384
42866,56378
42860,56387
42871,56386
42869,56386
42865,56401
42869,56402
42867,56401
42875,56411
42866,56403
42867,56399
42883,56398
42864,56399
42864,56395
42870,56375
42869,56373
42868,56388
42855,56372
42853,56364
42852,56378
42853,56365
42851,56358
42849,56363
42857,56366
42847,56379
42842,56357
42853,56371
42865,56383
42850,56375
42863,56375
42848,56373
42853,56369
42850,56371
42857,56359
42852,56359
42853,56369
42858,56353
42829,56345
42849,56348
42845,56358
42850,56350
42847,56347
42835,56365
42844,56361
42847,56344
42852,56353
42841,56351
42851,56366
42849,56366
42835,56371
42860,56369
42835,56355
42846,56378
42840,56379
42852,56376
42864,56379
42837,56367
42837,56370
42862,56376
42844,56366
42831,56355
42852,56367
42855,56379
42852,56368
42862,56375
42855,56367
42846,56377
42852,56371
42841,56387
42830,56379
42841,56381
42826,56372
42847,56399
42833,56375
42854,56380
42843,56380
42852,56378
42855,56379
42837,56391
42852,56383
42858,56388
42849,56388
42856,56393
42856,56377
42838,56399
42855,56413
42860,56401
42849,56403
42846,56404
42851,56415
42848,56412
42837,56417
42859,56417
42856,56402
42853,56407
42848,56411
42840,56413
42857,56406
42862,56402
42861,56419
42870,56423
42855,56438
42871,56440
42859,56446
42860,56423
42866,56436
42861,56430
42880,56434
42874,56459
42858,56425
42877,56450
42851,56442
42864,56435
42861,56445
42869,56452
42865,56460
42877,56445
42863,56449
42852,56440
42855,56426
42861,56431
42835,56432
42829,56390
42849,56332
42829,56320
42827,56329
42813,56329
42820,56336
42837,56340
42836,56333
42818,56322
42830,56337
42823,56335
42831,56332
42817,56342
42805,56332
42860,56423
42808,56308
42822,56327
42801,56312
42804,56290
42793,56307
42802,56280
42815,56283
42805,56289
42790,56289
42803,56299
42800,56288
42804,56280
42801,56300
42799,56295
42793,56283
42800,56283
42800,56280
42819,56299
42790,56305
42793,56289
42793,56283
42792,56291
42796,56284
42794,56274
42784,56279
42785,56272
42789,56274
42795,56257
42785,56261
42794,56270
42782,56255
42788,56270
42801,56260
42801,56267
42791,56266
42795,56255
42784,56264
42798,56272
42821,56259
42798,56269
42787,56264
42794,56276
42788,56262
42793,56279
42797,56306
42786,56291
42787,56279
42800,56278
42790,56291
42789,56271
42780,56298
42796,56278
42794,56290
42784,56275
42796,56282
42788,56294
42786,56281
42780,56289
42792,56281
42804,56285
42798,56292
42800,56297
42793,56279
42801,56284
42801,56289
42797,56275
42801,56280
42804,56298
42788,56303
42796,56295
42810,56307
42795,56282
42800,56299
42792,56309
42794,56292
42804,56299
42789,56304
42797,56307
42819,56301
42803,56307
42797,56320
42808,56322
42807,56320
42799,56313
42800,56329
42807,56316
42809,56324
42796,56315
42816,56323
42800,56333
42803,56331
42806,56333
42818,56341
42796,56334
42804,56341
42805,56338
42809,56337
42805,56343
42829,56357
42818,56356
42813,56351
42812,56344
42828,56362
42818,56350
42814,56355
42805,56381
42812,56369
42838,56360
42817,56359
42834,56367
42830,56383
42823,56376
42821,56385
42818,56370
42830,56382
42816,56380
42827,56379
42827,56379
42835,56382
42818,56375
42819,56365
42808,56347
42814,56323
42793,56304
42811,56290
42815,56293
42790,56268
42790,56258
42778,56257
42804,56262
42782,56267
42798,56256
42804,56265
42791,56271
42794,56276
42789,56277
42789,56275
42804,56281
42803,56276
42791,56277
42794,56264
42777,56278
42800,56245
42769,56249
42780,56238
42781,56249
42772,56247
42776,56230
42773,56227
42776,56236
42795,56225
42775,56228
42777,56232
42786,56236
42773,56237
42786,56247
42795,56254
42790,56254
42785,56247
42779,56244
42780,56244
42783,56247
42777,56236
42784,56240
42778,56231
42785,56220
42777,56218
42789,56231
42783,56225
42782,56218
42786,56231
42781,56232
42778,56236
42787,56236
42777,56227
42783,56230
42770,56243
42780,56240
42774,56231
42782,56238
42776,56252
42772,56255
42791,56236
42780,56258
42796,56253
42793,56245
42789,56250
42796,56239
42784,56256
42774,56240
42782,56258
42800,56237
42795,56247
42788,56265
42796,56256
42769,56251
42794,56269
42790,56254
42779,56248
42780,56250
42796,56251
42793,56245
42799,56253
42794,56258
42796,56266
42802,56259
42799,56264
42785,56267
42803,56264
42807,56254
42801,56281
42797,56282
42797,56275
42797,56268
42800,56291
42811,56278
42797,56258
42805,56289
42802,56284
42790,56289
42809,56297
42802,56287
42797,56288
42799,56318
42810,56288
42812,56280
42835,56300
42796,56298
42798,56306
42795,56301
42808,56310
42804,56331
42803,56344
42809,56310
42806,56296
42825,56316
42807,56299
42821,56319
42814,56333
42810,56315
42827,56334
42834,56312
42812,56336
42842,56335
42847,56325
42824,56349
42820,56342
42777,56314
42797,56258
42803,56294
42810,56279
42791,56257
42791,56241
42791,56238
42784,56223
42793,56225
42779,56232
42791,56220
42783,56224
42779,56211
42786,56210
42790,56233
42780,56222
42764,56226
42796,56218
42777,56220
42787,56222
42789,56199
42787,56211
42780,56204
42785,56172
42772,56190
42774,56183
42775,56177
42778,56163
42771,56154
42763,56171
42766,56176
42772,56172
42772,56180
42766,56182
42765,56173
42771,56175
42773,56180
42760,56171
42771,56167
42768,56163
42775,56155
42774,56175
42775,56155
42774,56162
42770,56160
42768,56146
42761,56166
42759,56157
42762,56153
42762,56151
42779,56149
42766,56147
42773,56131
42771,56168
42770,56151
42771,56163
42767,56154
42764,56150
42769,56161
42760,56158
42780,56157
42765,56155
42758,56174
42769,56153
42778,56158
42774,56176
42778,56164
42774,56166
42773,56170
42777,56169
42762,56167
42768,56171
42771,56166
42765,56163
42781,56161
42775,56171
42766,56169
42777,56166
42767,56159
42759,56174
42767,56187
42772,56173
42778,56185
42754,56177
42763,56176
42771,56179
42786,56191
42777,56191
42779,56181
42792,56201
42766,56198
42778,56183
42779,56206
42777,56198
42778,56209
42786,56200
42782,56206
42788,56213
42785,56207
42771,56207
42782,56209
42775,56201
42787,56199
42795,56202
42785,56226
42778,56220
42790,56218
42787,56207
42802,56223
42798,56223
42794,56231
42792,56233
42797,56230
42787,56229
42782,56229
42787,56246
42794,56248
42797,56252
42796,56240
42788,56244
42804,56263
42794,56248
42796,56259
42804,56260
42797,56239
42801,56263
42800,56276
42806,56264
42796,56267
42804,56259
42824,56280
42807,56286
42828,56265
42800,56288
42819,56287
42805,56287
42808,56291
42814,56286
42825,56295
42808,56268
42809,56267
42797,56251
42795,56208
42785,56205
42791,56196
42773,56171
42781,56179
42775,56150
42777,56179
42776,56160
42757,56164
42785,56173
42769,56163
42789,56174
42785,56182
42786,56165
42779,56168
42784,56157
42779,56159
42778,56164
42773,56166
42773,56152
42772,56154
42775,56137
42765,56146
42767,56128
42761,56138
42759,56119
42768,56121
42773,56124
42771,56150
42781,56150
42771,56147
42763,56146
42781,56149
42774,56149
42781,56142
42775,56140
42778,56141
42768,56132
42763,56143
42779,56144
42776,56136
42776,56139
42780,56149
42769,56133
42785,56138
42783,56141
42770,56146
42783,56141
42771,56135
42779,56137
42785,56137
42773,56126
42776,56139
42778,56155
42769,56142
42788,56151
42788,56160
42774,56159
42782,56168
42791,56159
42785,56151
42792,56162
42788,56162
42788,56165
42791,56171
42802,56163
42805,56155
42791,56168
42802,56151
42795,56178
42799,56159
42800,56172
42807,56191
42796,56188
42800,56175
42798,56190
42805,56194
42806,56169
42805,56190
42810,56200
42808,56186
42798,56199
42815,56195
42801,56190
42805,56200
42805,56195
42812,56216
42792,56215
42809,56217
42810,56219
42820,56233
42819,56223
42828,56227
42818,56197
42812,56196
42817,56218
42818,56239
42826,56244
42825,56242
42820,56237
42829,56239
42827,56241
42849,56247
42861,56264
42836,56254
42844,56254
42821,56254
42820,56261
42823,56264
42833,56269
42843,56259
42827,56264
42839,56272
42852,56284
42853,56272
42854,56286
42847,56281
42830,56290
42831,56289
42830,56300
42823,56292
42840,56289
42857,56304
42840,56307
42830,56298
42843,56287
42831,56251
42838,56233
42821,56224
42834,56208
42816,56203
42810,56192
42817,56187
42813,56175
42826,56187
42817,56198
42810,56185
42808,56201
42807,56190
42816,56207
42829,56209
42820,56212
42831,56202
42823,56199
42830,56203
42820,56205
42825,56210
42828,56209
42818,56191
42825,56189
42826,56204
42803,56211
42821,56190
42815,56192
42829,56192
42823,56200
42829,56196
42813,56209
42825,56195
42822,56204
42822,56206
42822,56208
42845,56205
42821,56204
42825,56200
42828,56208
42820,56206
42833,56194
42820,56213
42831,56195
42831,56212
42826,56203
42827,56210
42830,56223
42846,56212
42821,56218
42826,56209
42837,56224
42813,56231
42835,56221
42833,56220
42832,56219
42854,56243
42838,56237
42834,56231
42831,56238
42854,56235
42838,56222
42850,56242
42842,56247
42849,56251
42837,56234
42845,56247
42856,56255
42843,56256
42847,56252
42850,56259
42847,56268
42849,56266
42856,56256
42856,56251
42850,56263
42849,56267
42851,56270
42843,56275
42858,56282
42862,56258
42862,56278
42856,56271
42866,56281
42861,56284
42852,56283
42865,56300
42865,56297
42856,56283
42864,56297
42861,56290
42870,56299
42854,56303
42857,56304
42865,56311
42867,56307
42862,56314
42877,56311
42880,56319
42878,56319
42868,56326
42877,56330
42858,56327
42873,56341
42867,56332
42879,56338
42885,56342
42871,56340
42874,56332
42868,56349
42884,56348
42897,56358
42883,56366
42869,56355
42883,56361
42886,56368
42879,56366
42887,56372
42886,56379
42894,56394
42885,56383
42890,56384
42882,56383
42885,56394
42896,56389
42890,56369
42891,56349
42870,56335
42883,56327
42865,56306
42880,56307
42852,56285
42867,56280
42861,56290
42863,56283
42847,56275
42866,56291
42866,56296
42876,56296
42869,56296
42879,56318
42870,56313
42862,56306
42862,56302
42868,56319
42867,56304
42881,56297
42873,56293
42857,56298
42859,56288
42854,56289
42860,56289
42859,56289
42872,56279
42872,56282
42880,56290
42860,56302
42867,56299
42869,56296
42873,56331
42879,56327
42877,56324
42883,56301
42868,56312
42876,56303
42873,56315
42873,56314
42879,56313
42871,56311
42866,56310
42859,56310
42867,56307
42867,56320
42867,56313
42865,56322
42876,56316
42878,56308
42871,56337
42862,56314
42882,56330
42865,56323
42874,56336
42877,56338
42872,56329
42888,56331
42862,56339
42890,56328
42886,56344
42869,56314
42885,56340
42864,56358
42886,56354
42892,56351
42875,56357
42891,56358
42879,56351
42885,56361
42898,56359
42878,56368
42899,56369
42889,56367
42894,56348
42897,56379
42898,56379
42876,56360
42887,56378
42888,56364
42899,56374
42893,56397
42903,56384
42906,56394
42871,56375
42893,56379
42894,56401
42897,56430
42911,56416
42896,56386
42906,56383
42902,56397
42921,56388
42923,56412
42906,56435
42896,56425
42902,56421
42922,56423
42917,56420
42938,56428
42921,56421
42914,56432
42910,56438
42921,56439
42906,56440
42921,56444
42936,56460
42926,56456
42921,56475
42921,56461
42915,56454
42926,56477
42928,56469
42927,56471
42925,56483
42924,56495
42919,56486
42940,56492
42945,56498
42939,56483
42924,56489
42944,56501
42942,56499
42940,56511
42934,56500
42948,56513
42939,56498
42941,56504
42946,56526
42955,56522
42950,56525
42953,56511
42939,56506
42944,56506
42949,56513
42936,56477
42942,56463
42924,56441
42928,56436
42933,56424
42923,56443
42923,56429
42920,56432
42916,56431
42929,56441
42936,56430
42933,56453
42928,56437
42949,56447
42940,56457
42936,56444
42933,56463
42932,56455
42936,56447
42922,56455
42928,56444
42933,56455
42926,56446
42935,56449
42934,56430
42931,56419
42924,56442
42921,56445
42917,56430
42942,56459
42945,56451
42931,56461
42936,56459
42938,56472
42931,56456
42939,56474
42942,56451
42936,56452
42928,56476
42932,56474
42936,56469
42941,56457
42939,56464
42949,56475
42949,56459
42926,56475
42938,56461
42926,56464
42942,56459
42944,56482
42927,56472
42951,56471
42945,56487
42949,56465
42941,56482
42951,56486
42961,56482
42952,56482
42944,56500
42954,56487
42953,56489
42945,56496
42952,56498
42961,56511
42941,56504
42958,56505
42948,56504
42960,56510
42949,56493
42951,56503
42959,56503
42945,56504
42962,56512
42949,56511
42966,56516
42959,56525
42970,56526
42958,56514
42969,56506
42970,56522
42947,56531
42972,56529
42950,56531
42960,56527
42964,56539
42962,56541
42975,56529
42961,56545
42963,56542
42979,56546
42969,56547
42960,56564
42960,56567
42965,56554
42965,56559
42971,56554
42978,56549
42970,56559
42974,56543
42974,56543
42987,56558
42978,56554
42975,56582
42986,56561
42976,56573
42976,56581
42978,56565
42967,56573
42977,56581
42980,56574
42980,56602
42993,56582
42976,56579
42971,56583
42987,56593
42981,56605
42975,56584
42972,56606
42983,56594
42975,56603
42978,56603
42988,56601
42986,56605
42985,56605
42986,56590
42984,56574
42971,56552
42952,56556
42972,56531
42963,56546
42962,56523
42945,56514
42972,56521
42964,56526
42981,56528
42950,56524
42970,56527
42963,56520
42966,56540
42975,56547
42983,56546
42961,56543
42987,56547
42971,56553
42977,56545
42954,56540
42973,56537
42970,56532
42965,56537
42975,56538
42963,56532
42958,56538
42973,56521
42955,56533
42968,56522
42969,56532
42964,56548
42972,56548
42971,56540
42967,56550
42957,56539
42966,56555
42976,56559
42957,56546
42980,56554
42962,56551
42976,56553
42963,56532
42964,56557
42962,56545
42959,56566
42961,56543
42958,56527
42975,56548
42973,56543
42961,56562
42971,56560
42979,56568
42971,56555
42974,56566
42976,56556
42975,56563
42976,56575
42974,56557
42981,56598
42991,56576
42983,56572
42975,56582
42992,56575
42968,56595
42986,56585
42980,56588
42988,56591
42986,56586
42980,56605
42993,56590
42983,56584
42980,56590
42973,56594
42963,56532
42983,56598
42993,56624
42982,56619
42968,56585
42983,56597
42976,56593
42993,56615
42987,56604
42993,56616
42995,56620
42992,56615
42987,56616
42989,56629
42989,56620
43013,56628
43004,56629
42958,56620
42991,56576
42997,56641
42984,56640
42992,56642
42987,56643
42985,56635
42998,56639
42990,56655
42997,56646
42997,56654
43000,56657
43022,56644
42995,56663
42988,56655
43007,56656
43004,56654
43004,56664
42999,56674
43014,56671
43005,56666
42997,56671
43009,56676
43000,56689
43009,56691
43018,56690
43007,56678
43012,56694
43011,56688
43010,56679
43018,56717
43005,56693
43015,56711
43022,56698
43011,56708
43015,56706
43008,56715
43027,56719
43030,56722
43002,56701
43032,56696
43007,56688
43010,56668
43003,56653
42992,56645
42999,56639
43003,56610
42990,56622
43000,56608
42991,56624
42986,56634
42999,56621
42979,56633
42988,56634
42997,56642
42992,56651
43004,56636
42997,56624
43005,56647
43020,56651
43004,56648
42985,56649
43005,56639
42994,56629
42997,56647
43004,56609
42995,56624
42995,56622
43007,56626
43005,56629
42976,56621
42995,56631
42986,56642
42996,56634
42992,56634
43010,56658
43004,56657
42994,56639
43009,56650
43000,56632
43012,56647
43001,56644
42998,56634
42995,56649
43010,56635
42999,56641
42994,56657
42991,56650
42992,56654
43005,56643
42993,56650
42994,56658
43008,56671
43010,56652
43002,56655
43002,56666
43000,56654
43011,56662
43013,56654
43005,56660
43005,56682
43007,56662
43001,56672
42998,56670
43009,56679
43008,56665
43006,56691
43006,56677
43035,56693
43017,56681
43009,56683
43018,56670
43016,56692
43019,56695
43017,56694
43001,56696
43014,56704
43020,56691
43019,56708
43022,56684
43023,56705
43006,56694
43024,56698
43026,56696
43010,56717
43018,56718
43025,56710
43011,56723
43015,56706
43012,56730
43016,56714
43022,56709
43016,56701
43018,56734
43023,56727
43034,56737
43008,56729
43034,56730
43023,56727
43011,56730
43021,56741
43016,56729
43011,56755
43029,56744
43022,56729
43026,56751
43026,56736
43024,56731
43022,56758
43024,56736
43024,56737
43019,56726
43037,56761
43034,56755
43024,56769
43023,56766
43022,56765
43036,56762
43022,56749
43037,56758
43022,56772
43031,56759
43035,56768
43020,56772
43033,56764
43019,56776
43034,56778
43044,56771
43036,56787
43033,56774
43022,56775
43029,56752
43019,56732
43011,56725
43028,56710
42994,56707
43011,56683
43010,56684
43016,56686
43003,56687
43003,56696
43007,56682
43016,56686
42997,56706
43002,56703
43009,56697
42998,56691
43003,56687
43018,56707
43024,56692
42996,56689
43010,56696
43002,56690
42998,56685
42979,56678
43003,56656
42997,56666
42987,56686
42991,56666
42985,56667
42993,56672
42992,56685
43000,56690
42998,56693
42991,56692
42994,56693
42999,56689
43009,56682
42998,56691
42985,56678
42994,56693
42990,56668
42987,56680
42993,56682
42987,56692
42989,56690
42984,56679
42998,56673
42979,56674
42997,56683
42998,56691
43001,56685
42998,56693
43005,56692
42992,56696
42989,56680
42993,56705
42983,56688
43019,56693
42982,56707
42994,56704
42991,56689
42985,56691
43007,56722
42989,56725
42992,56706
42991,56689
43001,56701
42989,56704
42994,56693
42981,56699
42991,56709
42996,56707
42990,56691
42984,56712
43006,56700
43000,56708
42993,56714
42979,56719
42969,56711
42977,56717
42985,56707
43001,56707
42985,56731
42991,56707
42989,56725
42995,56720
43007,56729
42985,56734
42996,56725
42985,56732
42996,56728
42998,56719
42995,56746
42991,56730
42997,56723
43000,56731
42999,56746
42987,56739
42990,56749
42995,56742
42997,56741
43001,56750
42997,56754
42989,56758
42999,56766
42988,56757
42988,56756
42999,56758
42992,56757
43004,56759
42988,56760
42994,56760
43011,56767
43001,56766
43001,56770
43007,56747
42996,56760
42999,56767
42999,56772
42985,56774
43008,56768
42999,56779
42993,56774
43000,56780
43019,56784
43001,56787
43024,56790
43003,56784
43001,56792
43001,56780
42987,56767
42997,56748
42992,56721
42973,56716
42958,56698
42976,56687
42948,56690
42963,56689
42967,56662
42963,56681
42965,56659
42961,56662
42971,56664
42972,56684
42973,56664
42976,56677
42972,56684
42962,56667
42970,56673
42969,56668
42967,56674
42964,56665
42948,56660
42941,56641
42944,56644
42940,56649
42940,56644
42941,56628
42947,56623
42940,56634
42937,56638
42951,56643
42954,56630
42935,56640
42956,56650
42932,56640
42964,56630
42945,56645
42927,56644
42934,56634
42946,56644
42944,56627
42943,56620
42926,56615
42936,56606
42928,56613
42937,56617
42935,56608
42943,56614
42928,56611
42936,56625
42931,56633
42940,56600
42927,56612
42952,56627
42933,56624
42928,56634
42935,56618
42936,56629
42924,56630
42926,56612
42929,56625
42937,56636
42932,56634
42945,56637
42925,56620
42946,56628
42936,56620
42945,56617
42946,56644
42929,56618
42924,56647
42931,56615
42926,56630
42952,56631
42923,56642
42934,56637
42936,56647
42929,56639
42932,56647
42939,56638
42933,56642
42927,56650
42941,56651
42926,56634
42941,56633
42934,56645
42930,56636
42926,56641
42920,56653
42930,56644
42934,56644
42932,56663
42929,56654
42941,56653
42924,56669
42948,56656
42937,56673
42938,56663
42944,56667
42938,56660
42943,56664
42928,56682
42932,56657
42936,56665
42932,56672
42932,56671
42942,56669
42939,56671
42934,56676
42941,56681
42927,56687
42941,56678
42940,56669
42949,56678
42933,56688
42943,56684
42948,56693
42934,56687
42941,56685
42947,56694
42926,56697
42955,56712
42946,56699
42931,56701
42955,56712
42927,56712
42936,56706
42948,56712
42945,56711
42955,56710
42956,56723
42936,56720
42952,56722
42952,56716
42944,56717
42949,56711
42930,56708
42929,56700
42937,56669
42933,56658
42927,56626
42910,56632
42911,56604
42914,56607
42914,56594
42890,56604
42906,56588
42893,56605
42908,56594
42912,56604
42915,56608
42894,56598
42910,56608
42904,56599
42913,56593
42915,56599
42902,56588
42899,56592
42899,56565
42894,56564
42905,56569
42891,56567
42898,56566
42883,56542
42885,56549
42886,56541
42871,56509
42884,56550
42876,56534
42887,56548
42892,56539
42889,56547
42891,56559
42882,56561
42884,56540
42881,56538
42912,56532
42878,56545
42881,56522
42877,56520
42869,56537
42891,56546
42873,56501
42872,56479
42851,56472
42869,56505
42871,56513
42868,56504
42860,56501
42846,56499
42860,56523
42871,56505
42893,56513
42882,56519
42874,56504
42861,56519
42838,56519
42846,56501
42852,56508
42860,56505
42883,56525
42857,56504
42858,56515
42863,56512
42869,56508
42875,56516
42857,56504
42853,56504
42852,56517
42858,56513
42862,56527
42867,56497
42868,56507
42867,56513
42860,56522
42863,56508
42862,56508
42868,56521
42852,56509
42840,56500
42861,56505
42853,56508
42870,56504
42864,56512
42857,56531
42859,56508
42867,56519
42844,56519
42852,56519
42850,56516
42849,56508
42858,56523
42865,56531
42853,56516
42853,56513
42852,56525
42843,56536
42859,56529
42871,56546
42865,56525
42863,56529
42859,56520
42863,56543
42854,56536
42864,56531
42859,56531
42858,56526
42859,56531
42873,56549
42855,56542
42854,56544
42870,56553
42856,56537
42850,56557
42868,56543
42852,56538
42848,56542
42855,56529
42845,56512
42840,56489
42828,56469
42834,56427
42831,56439
42812,56414
42821,56403
42802,56388
42821,56393
42811,56395
42803,56401
42805,56388
42813,56392
42792,56389
42813,56378
42798,56402
42808,56371
42804,56384
42802,56370
42800,56362
42802,56362
42771,56353
42786,56330
42791,56322
42796,56315
42779,56318
42778,56305
42792,56313
42770,56303
42781,56294
42754,56298
42777,56309
42774,56307
42765,56284
42761,56309
42771,56292
42764,56287
42777,56281
42759,56296
42762,56290
42756,56285
42759,56292
42752,56270
42753,56268
42750,56264
42746,56253
42755,56251
42752,56264
42750,56268
42752,56245
42763,56257
42753,56266
42753,56257
42751,56257
42761,56265
42749,56256
42761,56252
42760,56268
42758,56261
42743,56247
42768,56262
42759,56253
42768,56258
42766,56257
42761,56267
42764,56253
42753,56246
42756,56252
42760,56258
42749,56257
42751,56251
42749,56246
42741,56272
42767,56253
42756,56254
42755,56255
42754,56251
42765,56261
42756,56274
42746,56257
42756,56247
42751,56268
42760,56258
42758,56255
42752,56249
42768,56255
42761,56257
42752,56265
42745,56272
42748,56259
42767,56268
42764,56260
42770,56263
42762,56281
42760,56280
42767,56284
42749,56287
42746,56275
42771,56282
42749,56285
42763,56284
42774,56280
42755,56283
42767,56275
42760,56293
42749,56297
42772,56287
42761,56308
42764,56316
42771,56297
42771,56304
42772,56300
42776,56299
42770,56310
42769,56313
42790,56312
42788,56322
42769,56314
42778,56325
42774,56320
42771,56331
42777,56341
42782,56334
42773,56340
42782,56335
42778,56333
42797,56340
42772,56342
42781,56337
42780,56355
42791,56355
42785,56351
42799,56354
42778,56361
42801,56367
42793,56360
42790,56349
42783,56334
42780,56329
42787,56310
42751,56292
42752,56282
42759,56267
42760,56254
42760,56248
42740,56246
42744,56238
42762,56233
42757,56238
42755,56251
42760,56256
42762,56256
42767,56249
42760,56253
42765,56258
42765,56245
42762,56249
42770,56247
42765,56226
42760,56228
42758,56242
42750,56253
42759,56237
42755,56207
42757,56236
42747,56236
42753,56215
42744,56236
42772,56227
42769,56225
42750,56233
42751,56224
42758,56231
42764,56272
42762,56281
42753,56247
42761,56219
42763,56244
42764,56209
42752,56238
42768,56212
42755,56235
42761,56223
42755,56241
42773,56239
42766,56230
42787,56244
42768,56240
42759,56241
42737,56249
42765,56226
42757,56256
42764,56251
42777,56261
42767,56266
42768,56272
42773,56277
42778,56272
42755,56268
42784,56274
42776,56275
42781,56274
42777,56278
42781,56274
42767,56274
42791,56287
42779,56292
42784,56283
42781,56279
42781,56295
42768,56300
42789,56295
42772,56293
42794,56296
42784,56298
42788,56302
42787,56320
42779,56318
42785,56296
42793,56293
42796,56313
42783,56327
42785,56321
42795,56327
42790,56326
42780,56330
42798,56326
42791,56338
42804,56329
42793,56356
42800,56340
42783,56357
42802,56359
42800,56360
42806,56343
42808,56358
42816,56356
42810,56355
42782,56360
42794,56363
42803,56369
42801,56383
42818,56377
42805,56390
42811,56376
42813,56386
42822,56390
42793,56403
42809,56381
42820,56387
42817,56400
42829,56410
42817,56409
42817,56402
42822,56406
42823,56417
42821,56422
42832,56417
42834,56419
42822,56425
42824,56447
42831,56435
42822,56426
42816,56415
42820,56422
42813,56399
42821,56388
42804,56379
42805,56361
42799,56357
42797,56335
42806,56360
42803,56345
42808,56359
42800,56355
42815,56370
42811,56361
42805,56376
42816,56375
42808,56397
42821,56404
42806,56372
42816,56369
42809,56391
42808,56385
42821,56388
42812,56386
42823,56372
42812,56376
42814,56368
42812,56372
42824,56379
42821,56393
42829,56382
42822,56397
42820,56382
42823,56389
42835,56392
42831,56411
42825,56402
42823,56405
42817,56409
42826,56401
42818,56411
42817,56400
42818,56402
42817,56398
42824,56408
42815,56403
42830,56404
42829,56405
42831,56410
42829,56422
42825,56408
42828,56422
42828,56430
42809,56416
42817,56422
42814,56430
42833,56434
42836,56427
42834,56429
42844,56451
42822,56441
42828,56449
42818,56444
42828,56442
42830,56460
42839,56457
42842,56466
42853,56452
42832,56459
42840,56465
42844,56457
42826,56468
42830,56462
42844,56465
42848,56479
42843,56476
42832,56486
42843,56476
42849,56475
42841,56475
42845,56477
42853,56495
42840,56471
42844,56487
42846,56495
42847,56504
42862,56483
42853,56502
42838,56503
42864,56500
42844,56522
42853,56500
42848,56508
42862,56513
42862,56512
42868,56527
42865,56522
42856,56512
42876,56520
42855,56529
42856,56527
42858,56541
42864,56540
42864,56525
42860,56531
42873,56520
42854,56546
42862,56536
42876,56554
42866,56549
42873,56542
42859,56533
42863,56553
42883,56562
42861,56567
42866,56566
42865,56561
42885,56580
42870,56572
42868,56576
42849,56565
42884,56574
42874,56581
42870,56606
42869,56590
42871,56588
42875,56602
42862,56598
42872,56585
42868,56564
42863,56557
42842,56524
42857,56511
42845,56531
42848,56518
42854,56492
42839,56488
42863,56520
42848,56515
42836,56502
42846,56530
42836,56531
42857,56532
42868,56529
42853,56528
42853,56498
42853,56526
42860,56526
42851,56535
42845,56519
42849,56509
42840,56501
42846,56513
42843,56504
42842,56516
42877,56516
42840,56505
42863,56503
42854,56497
42835,56496
42840,56544
42849,56524
42854,56481
42849,56488
42851,56529
42860,56522
42856,56527
42860,56527
42848,56523
42848,56522
42864,56516
42850,56521
42881,56511
42864,56513
42864,56535
42828,56536
42835,56514
42839,56518
42855,56523
42848,56521
42852,56518
42854,56530
42857,56547
42855,56534
42853,56531
42852,56550
42861,56531
42852,56538
42855,56557
42847,56541
42859,56541
42859,56529
42847,56552
42853,56552
42854,56550
42867,56558
42875,56554
42868,56552
42856,56568
42860,56542
42871,56569
42869,56567
42866,56563
42860,56551
42869,56563
42854,56562
42853,56568
42865,56573
42856,56572
42873,56576
42865,56566
42866,56580
42877,56580
42862,56591
42876,56575
42869,56591
42877,56585
42875,56599
42879,56610
42882,56602
42877,56605
42874,56602
42873,56607
42880,56602
42878,56605
42876,56612
42865,56624
42869,56601
42881,56628
42882,56612
42890,56627
42881,56613
42877,56636
42879,56629
42888,56646
42888,56614
42879,56638
42884,56654
42885,56632
42883,56641
42879,56630
42885,56639
42881,56645
42879,56644
42891,56647
42898,56647
42881,56662
42899,56663
42879,56649
42895,56654
42884,56671
42897,56663
42904,56673
42888,56674
42899,56674
42890,56676
42899,56654
42896,56694
42913,56685
42907,56703
42917,56676
42901,56684
42895,56667
42894,56666
42898,56645
42887,56644
42871,56627
42873,56619
42861,56593
42873,56588
42876,56599
42867,56591
42881,56603
42874,56603
42881,56616
42880,56620
42875,56622
42880,56619
42887,56608
42885,56609
42879,56620
42875,56617
42875,56622
42869,56604
42873,56601
42862,56610
42878,56590
42871,56597
42859,56583
42856,56584
42871,56602
42864,56573
42856,56587
42864,56595
42877,56592
42879,56610
42880,56595
42880,56601
42857,56599
42875,56605
42865,56595
42881,56599
42867,56609
42858,56593
42860,56596
42863,56596
42866,56582
42862,56601
42848,56604
42869,56598
42849,56591
42863,56588
42846,56600
42855,56595
42862,56594
42858,56594
42857,56590
42864,56608
42868,56602
42874,56620
42869,56611
42862,56604
42876,56612
42874,56598
42860,56612
42863,56616
42882,56606
42885,56621
42885,56619
42873,56597
42863,56613
42882,56618
42883,56619
42861,56616
42880,56628
42872,56617
42881,56619
42864,56613
42864,56634
42869,56627
42875,56615
42870,56621
42878,56622
42871,56631
42880,56645
42878,56639
42886,56617
42876,56610
42870,56632
42873,56645
42872,56641
42879,56642
42884,56641
42870,56656
42895,56643
42884,56635
42865,56674
42878,56647
42868,56656
42868,56643
42893,56657
42888,56643
42878,56654
42878,56639
42873,56660
42880,56667
42888,56674
42891,56670
42879,56670
42875,56674
42885,56671
42895,56682
42887,56645
42874,56666
42877,56641
42874,56639
42884,56632
42865,56609
42853,56595
42848,56592
42861,56587
42851,56569
42840,56581
42846,56572
42844,56551
42860,56577
42850,56562
42845,56568
42832,56568
42840,56569
42841,56596
42857,56565
42857,56558
42852,56543
42838,56544
42842,56532
42831,56536
42830,56523
42846,56524
42836,56521
42833,56519
42832,56505
42807,56514
42814,56504
42819,56522
42841,56525
42824,56513
42840,56512
42831,56542
42827,56553
42834,56506
42821,56495
42820,56504
42812,56491
42809,56504
42824,56510
42813,56491
42801,56493
42837,56503
42812,56505
42821,56489
42836,56495
42809,56487
42810,56494
42821,56489
42799,56481
42804,56477
42794,56487
42811,56481
42801,56493
42818,56486
42800,56493
42810,56493
42805,56487
42804,56486
42807,56483
42816,56493
42807,56506
42816,56496
42803,56477
42795,56491
42807,56482
42809,56489
42813,56494
42809,56489
42810,56494
42822,56498
42810,56507
42812,56479
42803,56491
42811,56488
42810,56498
42803,56496
42812,56513
42806,56492
42804,56490
42801,56496
42808,56506
42815,56510
42808,56501
42817,56511
42808,56496
42821,56511
42815,56503
42811,56495
42814,56506
42815,56517
42803,56509
42803,56503
42820,56513
42816,56523
42819,56508
42812,56513
42809,56526
42819,56526
42829,56513
42827,56518
42822,56528
42805,56515
42815,56538
42810,56529
42833,56527
42819,56524
42815,56534
42834,56532
42829,56530
42810,56543
42813,56530
42824,56541
42815,56557
42825,56551
42837,56550
42842,56535
42823,56557
42811,56543
42825,56553
42827,56526
42817,56545
42829,56556
42827,56555
42823,56562
42841,56564
42845,56578
42840,56565
42839,56583
42842,56591
42838,56588
42828,56571
42839,56574
42822,56551
42832,56547
42820,56523
42823,56510
42800,56479
42800,56485
42796,56461
42814,56476
42800,56463
42795,56454
42797,56446
42800,56462
42811,56445
42796,56466
42796,56458
42810,56461
42814,56457
42795,56463
42786,56462
42797,56450
42802,56468
42789,56440
42793,56431
42790,56432
42776,56416
42794,56406
42781,56421
42777,56414
42786,56400
42789,56410
42791,56413
42783,56423
42783,56424
42784,56408
42772,56420
42775,56424
42777,56427
42779,56431
42777,56428
42788,56407
42792,56416
42794,56414
42781,56425
42768,56440
42783,56413
42781,56409
42788,56404
42777,56409
42785,56412
42778,56408
42786,56405
42789,56408
42771,56403
42778,56408
42787,56409
42776,56426
42793,56415
42776,56409
42785,56412
42785,56412
42784,56421
42783,56407
42786,56434
42782,56409
42774,56406
42780,56415
42785,56430
42778,56432
42776,56421
42771,56424
42781,56431
42790,56441
42807,56427
42778,56411
42784,56430
42792,56431
42789,56440
42795,56442
42786,56427
42797,56427
42804,56432
42787,56435
42804,56442
42778,56439
42792,56435
42790,56456
42796,56444
42796,56449
42791,56435
42798,56443
42794,56438
42809,56455
42801,56453
42781,56466
42786,56460
42790,56447
42794,56464
42810,56460
42798,56462
42802,56478
42815,56455
42802,56458
42799,56467
42808,56473
42805,56472
42791,56470
42805,56470
42809,56488
42791,56482
42816,56490
42805,56478
42804,56476
42805,56494
42811,56480
42815,56495
42814,56493
42806,56501
42822,56495
42812,56492
42821,56491
42814,56498
42814,56515
42826,56494
42811,56481
42805,56500
42782,56470
42797,56436
42802,56419
42813,56414
42787,56421
42793,56431
42782,56429
42785,56401
42792,56409
42784,56406
42806,56408
42784,56395
42790,56418
42790,56440
42799,56413
42798,56415
42791,56413
42795,56413
42798,56421
42791,56402
42789,56406
42791,56407
42804,56414
42779,56402
42771,56410
42786,56421
42781,56377
42780,56367
42796,56383
42786,56403
42789,56414
42785,56410
42787,56409
42790,56431
42800,56413
42794,56420
42819,56426
42815,56419
42783,56411
42780,56419
42805,56406
42780,56425
42785,56417
42797,56399
42793,56409
42793,56420
42800,56411
42794,56405
42784,56415
42801,56431
42806,56412
42807,56437
42795,56435
42803,56441
42816,56436
42807,56458
42793,56438
42821,56436
42794,56445
42815,56444
42816,56437
42813,56441
42800,56450
42803,56455
42818,56455
42801,56466
42819,56463
42812,56451
42797,56464
42805,56459
42814,56466
42811,56460
42797,56471
42806,56446
42822,56453
42813,56462
42827,56477
42807,56485
42808,56471
42815,56477
42816,56482
42806,56494
42826,56496
42812,56482
42824,56491
42807,56493
42835,56499
42829,56507
42834,56512
42824,56519
42814,56518
42822,56508
42834,56522
42818,56518
42823,56534
42823,56520
42835,56523
42828,56527
42830,56525
42842,56525
42832,56531
42823,56542
42825,56540
42843,56538
42828,56548
42848,56537
42827,56554
42839,56543
42828,56550
42829,56557
42844,56545
42842,56567
42843,56577
42841,56570
42850,56576
42838,56553
42850,56566
42856,56569
42856,56582
42843,56576
42844,56594
42833,56575
42846,56592
42853,56591
42848,56579
42844,56594
42848,56591
42839,56587
42828,56593
42844,56592
42853,56595
42857,56602
42855,56612
42849,56599
42838,56593
42848,56578
42842,56575
42841,56571
42841,56547
42816,56539
42824,56534
42845,56535
42823,56532
42824,56535
42820,56546
42814,56540
42825,56544
42846,56557
42830,56547
42848,56556
42837,56554
42825,56572
42833,56550
42830,56572
42838,56550
42843,56542
42820,56544
42833,56541
42825,56544
42823,56534
42828,56544
42816,56532
42823,56551
42826,56553
42820,56537
42837,56560
42835,56545
42847,56569
42832,56583
42827,56566
42846,56583
42842,56575
42825,56569
42838,56578
42832,56589
42848,56578
42844,56580
42836,56592
42838,56579
42841,56589
42849,56595
42837,56586
42847,56581
42843,56586
42824,56593
42843,56595
42844,56592
42833,56594
42844,56606
42831,56601
42857,56599
42854,56600
42841,56600
42848,56605
42854,56623
42846,56616
42872,56618
42841,56619
42843,56617
42844,56624
42858,56635
42858,56626
42841,56627
42867,56621
42859,56613
42846,56632
42857,56643
42852,56643
42859,56641
42857,56651
42850,56643
42855,56634
42859,56645
42856,56642
42854,56651
42854,56655
42863,56654
42864,56651
42850,56668
42860,56656
42868,56651
42870,56667
42876,56668
42876,56658
42879,56669
42857,56668
42860,56669
42861,56679
42866,56678
42866,56685
42875,56686
42873,56664
42869,56686
42865,56690
42889,56698
42883,56681
42890,56708
42879,56701
42867,56710
42868,56694
42895,56709
42884,56706
42874,56709
42882,56726
42891,56703
42886,56720
42888,56726
42893,56731
42904,56729
42881,56724
42883,56721
42876,56716
42887,56721
42892,56718
42895,56737
42886,56722
42890,56769
42901,56736
42879,56739
42895,56734
42889,56746
42891,56736
42892,56770
42883,56756
42903,56765
42899,56761
42889,56749
42903,56759
42892,56760
42905,56758
42911,56760
42889,56781
42898,56784
42908,56772
42891,56760
42891,56766
42887,56719
42875,56665
42880,56674
42887,56686
42880,56688
42881,56681
42875,56693
42887,56679
42881,56701
42877,56702
42906,56731
42909,56726
42914,56724
42875,56730
42887,56718
42885,56733
42883,56730
42888,56739
42894,56708
42886,56718
42870,56704
42879,56722
42864,56716
42878,56700
42862,56715
42874,56709
42891,56719
42892,56724
42889,56728
42899,56739
42890,56725
42887,56726
42882,56729
42896,56742
42899,56734
42895,56733
42887,56746
42906,56725
42894,56738
42892,56729
42903,56734
42888,56749
42896,56738
42896,56732
42898,56726
42890,56733
42879,56740
42885,56744
42907,56746
42892,56749
42894,56750
42901,56750
42892,56739
42894,56748
42896,56758
42898,56758
42885,56766
42893,56756
42912,56766
42913,56748
42895,56757
42902,56772
42909,56768
42902,56772
42898,56770
42905,56774
42890,56764
42886,56771
42897,56778
42912,56763
42903,56788
42900,56795
42903,56769
42896,56791
42897,56777
42902,56782
42902,56778
42909,56784
42893,56811
42909,56799
42903,56802
42894,56782
42911,56802
42910,56789
42903,56806
42899,56799
42905,56814
42903,56797
42907,56803
42914,56817
42915,56814
42908,56808
42922,56806
42910,56832
42910,56820
42901,56823
42917,56818
42905,56837
42910,56832
42917,56847
42917,56834
42921,56826
42916,56822
42923,56835
42923,56838
42909,56835
42915,56848
42908,56858
42914,56853
42926,56839
42925,56868
42918,56858
42926,56845
42917,56854
42931,56864
42921,56855
42905,56856
42911,56866
42930,56861
42922,56862
42913,56861
42913,56879
42924,56884
42921,56872
42926,56870
42907,56851
42915,56864
42912,56845
42908,56835
42905,56810
42902,56800
42893,56801
42896,56780
42907,56784
42892,56786
42892,56788
42917,56797
42909,56798
42905,56807
42906,56806
42913,56811
42905,56810
42902,56808
42912,56802
42910,56822
42898,56803
42901,56809
42903,56807
42895,56795
42897,56805
42903,56774
42893,56793
42895,56792
42903,56773
42888,56778
42901,56786
42891,56791
42895,56795
42906,56807
42903,56789
42904,56794
42903,56798
42898,56807
42910,56802
42917,56814
42886,56788
42898,56804
42881,56798
42899,56815
42886,56798
42901,56791
42908,56805
42893,56813
42902,56798
42893,56808
42901,56796
42905,56812
42887,56810
42904,56812
42906,56826
42906,56822
42904,56815
42891,56820
42904,56808
42910,56812
42901,56817
42896,56818
42903,56816
42901,56836
42895,56819
42889,56819
42895,56831
42905,56825
42897,56818
42906,56822
42897,56818
42896,56834
42883,56833
42911,56831
42897,56833
42910,56824
42894,56835
42897,56832
42888,56833
42896,56838
42889,56838
42908,56829
42903,56832
42898,56849
42892,56843
42896,56850
42884,56853
42890,56849
42894,56853
42905,56846
42900,56839
42892,56849
42893,56861
42896,56858
42891,56870
42890,56861
42902,56851
42900,56866
42903,56880
42911,56892
42884,56878
42913,56874
42906,56876
42910,56878
42922,56874
42919,56890
42902,56875
42902,56879
42906,56874
42913,56889
42910,56845
42911,56905
42900,56884
42922,56886
42911,56908
42902,56890
42903,56908
42916,56906
42900,56906
42924,56899
42939,56895
42914,56919
42900,56908
42915,56939
42915,56926
42917,56952
42923,56916
42915,56900
42918,56892
42909,56946
42906,56930
42922,56938
42922,56947
42920,56942
42929,56919
42910,56936
42926,56901
42914,56893
42924,56885
42890,56862
42858,56853
42874,56845
42879,56830
42885,56837
42893,56821
42893,56840
42891,56850
42905,56862
42902,56849
42899,56862
42902,56859
42897,56867
42910,56861
42894,56848
42902,56873
42918,56875
42891,56847
42882,56846
42899,56849
42889,56868
42901,56848
42901,56824
42887,56843
42880,56850
42885,56852
42882,56843
42891,56843
42891,56850
42895,56871
42887,56861
42897,56869
42899,56870
42892,56868
42896,56871
42890,56884
42883,56839
42877,56868
42898,56872
42877,56856
42886,56868
42884,56864
42888,56865
42887,56866
42895,56859
42879,56849
42894,56857
42892,56843
42902,56859
42891,56856
42907,56861
42907,56857
42886,56880
42881,56877
42891,56867
42898,56867
42884,56878
42907,56871
42899,56895
42902,56875
42904,56872
42899,56870
42901,56890
42893,56880
42888,56884
42901,56869
42904,56882
42904,56890
42887,56889
42897,56882
42888,56895
42893,56883
42889,56894
42900,56902
42895,56897
42889,56896
42901,56891
42904,56899
42886,56899
42897,56903
42894,56885
42894,56906
42897,56902
42899,56912
42895,56913
42892,56908
42896,56922
42897,56908
42895,56925
42893,56911
42912,56916
42909,56917
42895,56910
42915,56911
42899,56918
42885,56914
42896,56923
42893,56939
42905,56931
42902,56938
42903,56919
42912,56933
42905,56931
42911,56941
42915,56948
42916,56930
42898,56934
42918,56950
42919,56935
42912,56953
42910,56952
42903,56958
42901,56952
42923,56955
42903,56923
42882,56926
42899,56899
42890,56904
42887,56889
42888,56872
42881,56866
42877,56851
42874,56868
42878,56849
42866,56857
42866,56856
42878,56855
42874,56861
42881,56855
42891,56874
42889,56854
42872,56854
42874,56865
42878,56860
42878,56854
42887,56855
42866,56854
42854,56850
42870,56842
42875,56825
42873,56845
42861,56836
42868,56826
42868,56822
42869,56834
42852,56841
42874,56822
42883,56842
42878,56847
42864,56870
42876,56862
42858,56834
42861,56852
42863,56851
42871,56856
42857,56858
42868,56837
42860,56839
42854,56835
42863,56810
42863,56842
42855,56820
42854,56831
42854,56829
42842,56837
42860,56829
42859,56825
42862,56858
42847,56832
42860,56850
42846,56839
42865,56851
42865,56842
42856,56836
42858,56848
42861,56863
42840,56834
42848,56856
42847,56851
42858,56851
42846,56850
42864,56843
42854,56859
42850,56850
42866,56867
42862,56852
42849,56844
42847,56862
42856,56849
42850,56860
42846,56851
42851,56846
42858,56855
42858,56861
42840,56868
42850,56847
42839,56859
42859,56851
42851,56855
42842,56860
42854,56852
42845,56846
42853,56867
42842,56856
42859,56873
42865,56864
42858,56884
42858,56873
42860,56863
42844,56869
42873,56860
42850,56870
42857,56866
42850,56880
42851,56876
42859,56874
42860,56870
42843,56883
42861,56869
42851,56886
42853,56885
42860,56872
42847,56878
42840,56899
42843,56898
42859,56889
42837,56889
42837,56900
42842,56900
42856,56886
42858,56913
42871,56904
42857,56900
42857,56902
42857,56900
42865,56904
42869,56929
42861,56948
42861,56925
42863,56891
42865,56925
42853,56882
42863,56902
42865,56921
42865,56915
42859,56923
42872,56924
42865,56913
42856,56892
42861,56868
42840,56860
42824,56842
42805,56818
42860,56872
42818,56812
42828,56804
42832,56809
42819,56804
42826,56817
42826,56811
42819,56799
42833,56823
42849,56821
42818,56814
42837,56815
42814,56814
42820,56805
42826,56806
42809,56798
42835,56787
42814,56792
42815,56789
42807,56777
42800,56773
42795,56780
42803,56777
42807,56773
42805,56776
42800,56767
42804,56780
42817,56778
42819,56779
42816,56782
42814,56774
42816,56781
42811,56776
42812,56780
42808,56768
42805,56781
42805,56772
42811,56765
42809,56761
42800,56760
42820,56760
42820,56772
42811,56770
42803,56757
42818,56752
42805,56770
42815,56764
42801,56761
42811,56769
42806,56763
42797,56756
42802,56761
42807,56765
42805,56756
42819,56777
42792,56762
42813,56770
42805,56771
42811,56777
42811,56769
42802,56766
42813,56765
42821,56783
42799,56787
42816,56770
42799,56777
42798,56760
42805,56773
42813,56775
42810,56777
42803,56774
42800,56765
42800,56774
42808,56768
42802,56775
42814,56785
42800,56777
42802,56767
42807,56780
42812,56788
42800,56779
42818,56798
42818,56788
42807,56797
42806,56803
42808,56784
42808,56788
42814,56796
42802,56802
42800,56790
42815,56793
42817,56787
42806,56816
42837,56800
42816,56805
42814,56804
42801,56818
42804,56800
42812,56807
42804,56810
42815,56807
42814,56810
42816,56824
42805,56820
42811,56815
42815,56818
42818,56818
42827,56812
42809,56815
42820,56821
42823,56814
42815,56831
42815,56821
42828,56824
42828,56826
42824,56830
42823,56833
42830,56844
42838,56831
42810,56829
42827,56853
42821,56840
42829,56840
42827,56817
42820,56799
42806,56799
42796,56783
42789,56749
42790,56731
42797,56717
42784,56717
42773,56724
42789,56727
42786,56725
42802,56738
42789,56717
42789,56717
42786,56735
42783,56732
42778,56718
42788,56716
42782,56732
42775,56716
42780,56710
42792,56710
42762,56722
42773,56689
42783,56685
42774,56686
42766,56675
42776,56683
42762,56676
42759,56685
42770,56681
42771,56697
42779,56676
42775,56690
42796,56689
42766,56690
42775,56686
42769,56667
42774,56673
42767,56667
42758,56667
42760,56667
42758,56667
42771,56649
42768,56652
42750,56654
42752,56656
42759,56662
42747,56652
42767,56663
42757,56654
42754,56651
42753,56668
42772,56664
42768,56657
42754,56680
42760,56680
42761,56663
42756,56665
42764,56667
42770,56675
42752,56666
42756,56676
42759,56669
42770,56672
42762,56674
42753,56678
42769,56658
42757,56662
42753,56673
42767,56655
42776,56669
42757,56654
42768,56677
42770,56673
42759,56663
42750,56666
42761,56665
42773,56668
42770,56685
42771,56678
42764,56673
42764,56666
42759,56672
42771,56683
42756,56677
42776,56683
42778,56675
42766,56670
42762,56683
42769,56689
42762,56681
42764,56691
42774,56671
42769,56689
42777,56694
42767,56685
42775,56696
42764,56693
42770,56696
42767,56698
42776,56698
42779,56709
42780,56698
42777,56707
42799,56711
42778,56706
42776,56715
42783,56703
42759,56720
42784,56723
42764,56731
42779,56734
42774,56704
42787,56719
42779,56678
42776,56703
42783,56704
42776,56714
42778,56729
42781,56721
42780,56729
42772,56743
42805,56715
42787,56712
42799,56705
42762,56689
42740,56662
42732,56651
42735,56632
42753,56619
42754,56609
42751,56604
42744,56611
42745,56602
42741,56595
42743,56610
42737,56612
42746,56617
42746,56602
42755,56596
42748,56602
42753,56605
42751,56604
42754,56585
42752,56583
42742,56578
42739,56588
42727,56575
42719,56557
42734,56557
42728,56575
42739,56562
42735,56553
42722,56551
42730,56554
42723,56546
42747,56551
42733,56546
42739,56564
42732,56559
42724,56569
42746,56580
42737,56561
42745,56552
42743,56564
42744,56565
42736,56556
42732,56549
42738,56533
42710,56537
42739,56548
42725,56550
42728,56550
42729,56548
42725,56537
42737,56547
42720,56534
42743,56548
42739,56548
42739,56553
42737,56559
42723,56542
42727,56551
42734,56560
42741,56554
42755,56561
42745,56562
42734,56570
42741,56565
42746,56571
42751,56562
42732,56559
42755,56564
42737,56556
42744,56556
42750,56568
42746,56569
42753,56565
42742,56575
42755,56562
42740,56568
42750,56567
42746,56584
42739,56569
42753,56586
42747,56576
42749,56580
42748,56580
42751,56568
42747,56581
42743,56584
42756,56590
42744,56585
42762,56584
42744,56588
42746,56603
42756,56599
42744,56588
42762,56594
42757,56597
42765,56588
42755,56601
42767,56608
42760,56613
42761,56626
42760,56614
42767,56627
42776,56627
42753,56611
42768,56608
42774,56617
42766,56618
42773,56647
42769,56618
42765,56635
42764,56634
42774,56641
42783,56641
42764,56635
42773,56647
42775,56646
42774,56635
42788,56634
42774,56641
42777,56643
42772,56656
42780,56656
42793,56656
42796,56673
42781,56660
42783,56661
42779,56675
42779,56688
42783,56678
42807,56681
42793,56678
42801,56689
42778,56688
42791,56692
42774,56688
42773,56666
42779,56644
42769,56644
42767,56628
42770,56609
42773,56585
42775,56569
42758,56595
42764,56574
42757,56590
42755,56582
42770,56579
42775,56604
42768,56578
42776,56611
42763,56610
42763,56594
42759,56589
42768,56592
42772,56613
42769,56595
42776,56585
42769,56583
42768,56582
42773,56575
42771,56579
42759,56566
42763,56580
42760,56578
42759,56586
42770,56580
42763,56576
42764,56583
42772,56584
42764,56587
42778,56593
42768,56588
42776,56584
42785,56591
42761,56594
42772,56581
42764,56589
42757,56568
42763,56581
42772,56578
42762,56574
42773,56573
42762,56595
42769,56592
42766,56596
42760,56594
42777,56593
42755,56599
42774,56590
42775,56601
42773,56592
42768,56605
42768,56594
42770,56592
42762,56581
42758,56610
42775,56628
42787,56599
42771,56601
42780,56594
42789,56602
42784,56610
42776,56634
42771,56612
42779,56620
42763,56606
42783,56629
42794,56622
42783,56626
42787,56617
42799,56636
42784,56624
42786,56630
42787,56632
42771,56641
42789,56637
42802,56634
42782,56641
42798,56649
42799,56659
42788,56630
42802,56642
42792,56654
42792,56652
42800,56656
42791,56656
42809,56676
42783,56666
42801,56650
42792,56666
42798,56680
42796,56676
42793,56670
42802,56677
42756,56654
42776,56686
42800,56684
42802,56716
42783,56708
42804,56669
42805,56668
42808,56698
42808,56691
42813,56696
42816,56694
42816,56717
42802,56710
42811,56696
42813,56712
42815,56717
42824,56708
42807,56716
42780,56720
42820,56724
42819,56735
42817,56722
42826,56753
42810,56739
42804,56728
42817,56746
42826,56759
42802,56755
42822,56750
42826,56734
42812,56752
42802,56719
42815,56708
42813,56701
42789,56688
42802,56676
42790,56686
42800,56663
42801,56668
42822,56670
42807,56669
42794,56687
42815,56690
42810,56688
42807,56693
42817,56706
42810,56696
42814,56692
42816,56704
42807,56673
42821,56700
42812,56690
42812,56685
42799,56676
42803,56672
42808,56675
42805,56662
42804,56665
42811,56684
42816,56684
42814,56699
42802,56696
42813,56689
42804,56690
42812,56684
42817,56716
42809,56710
42810,56705
42805,56713
42817,56716
42812,56709
42821,56719
42812,56699
42816,56712
42813,56716
42812,56712
42827,56707
42824,56694
42806,56703
42815,56704
42822,56729
42818,56708
42816,56722
42818,56722
42826,56713
42816,56726
42821,56708
42819,56725
42827,56712
42837,56728
42825,56735
42828,56738
42829,56725
42840,56725
42830,56750
42820,56744
42825,56742
42826,56757
42841,56738
42824,56750
42833,56753
42823,56746
42831,56753
42848,56752
42833,56758
42833,56753
42850,56776
42817,56754
42830,56769
42839,56769
42833,56755
42853,56765
42833,56766
42848,56779
42839,56777
42856,56760
42851,56774
42845,56771
42837,56780
42847,56784
42844,56773
42852,56799
42869,56797
42841,56796
42849,56791
42853,56797
42846,56799
42854,56819
42853,56801
42844,56821
42857,56812
42857,56810
42848,56813
42859,56815
42840,56813
42858,56820
42863,56831
42853,56820
42872,56828
42869,56832
42866,56832
42868,56852
42850,56839
42873,56843
42858,56850
42861,56854
42871,56852
42876,56838
42866,56858
42873,56852
42872,56876
42870,56869
42871,56856
42866,56889
42871,56869
42868,56879
42882,56894
42880,56885
42879,56884
42874,56882
42880,56893
42885,56897
42886,56887
42881,56885
42891,56906
42891,56900
42877,56894
42872,56897
42881,56888
42878,56889
42881,56862
42868,56854
42865,56839
42869,56834
42858,56818
42861,56818
42859,56795
42858,56820
42861,56823
42855,56828
42862,56838
42867,56830
42863,56832
42871,56849
42869,56831
42874,56840
42866,56855
42866,56858
42872,56863
42864,56848
42865,56854
42868,56843
42880,56832
42876,56826
42872,56832
42865,56835
42865,56830
42874,56826
42855,56845
42865,56828
42861,56831
42887,56842
42863,56850
42877,56850
42877,56850
42889,56848
42876,56834
42888,56859
42879,56858
42865,56854
42890,56876
42872,56844
42854,56857
42888,56855
42864,56848
42873,56862
42868,56851
42882,56860
42875,56848
42872,56844
42878,56858
42891,56846
42871,56856
42902,56862
42875,56862
42881,56881
42894,56879
42897,56864
42881,56860
42871,56866
42883,56881
42877,56882
42866,56888
42876,56886
42894,56877
42892,56902
42894,56878
42889,56886
42889,56891
42885,56887
42901,56867
42889,56886
42882,56902
42893,56897
42899,56889
42900,56905
42895,56906
42878,56899
42901,56896
42885,56893
42891,56909
42889,56920
42903,56917
42882,56912
42884,56935
42899,56940
42900,56895
42893,56889
42913,56907
42880,56913
42894,56917
42891,56928
42898,56929
42895,56914
42899,56925
42904,56922
42921,56926
42940,56921
42898,56935
42924,56933
42889,56891
42901,56944
42912,56933
42905,56943
42898,56944
42891,56951
42912,56950
42904,56958
42903,56951
42912,56953
42900,56973
42905,56966
42927,56964
42900,56962
42917,56971
42917,56969
42912,56960
42912,56979
42918,56983
42917,56978
42910,56972
42931,56988
42913,56976
42917,56964
42919,56970
42908,56976
42909,56947
42904,56936
42896,56922
42888,56907
42895,56914
42885,56896
42888,56888
42901,56879
42878,56878
42893,56885
42901,56890
42899,56903
42904,56894
42904,56902
42897,56901
42903,56905
42895,56905
42894,56914
42901,56900
42905,56900
42903,56886
42896,56888
42892,56887
42887,56888
42891,56884
42889,56890
42875,56873
42890,56867
42888,56874
42902,56886
42884,56888
42887,56896
42887,56895
42889,56883
42879,56887
42896,56890
42902,56897
42889,56899
42902,56875
42897,56882
42895,56885
42884,56884
42893,56875
42885,56886
42889,56898
42892,56877
42884,56883
42898,56881
42874,56884
42888,56891
42908,56915
42896,56906
42884,56883
42882,56905
42897,56913
42887,56901
42900,56903
42899,56896
42893,56911
42900,56894
42881,56906
42897,56918
42891,56905
42882,56897
42903,56912
42895,56921
42900,56922
42905,56908
42901,56909
42901,56917
42891,56907
42900,56912
42890,56912
42893,56918
42894,56921
42888,56934
42891,56908
42883,56920
42891,56934
42897,56934
42900,56932
42899,56921
42910,56922
42906,56944
42911,56935
42893,56933
42886,56936
42897,56934
42902,56940
42903,56930
42892,56948
42911,56938
42890,56932
42894,56933
42907,56942
42908,56955
42898,56952
42907,56950
42904,56947
42894,56942
42914,56954
42896,56961
42912,56961
42907,56957
42912,56960
42910,56954
42927,56952
42912,56961
42912,56967
42898,56967
42898,56965
42910,56971
42916,56956
42916,56984
42915,56978
42911,56985
42922,56984
42914,56980
42897,56975
42918,56991
42907,57000
42917,57003
42908,56988
42922,57006
42934,56993
42927,56990
42908,56996
42937,57006
42927,57004
42923,57000
42920,57017
42922,57001
42919,56999
42909,57005
42921,57011
42918,56985
42914,56973
42891,56963
42903,56939
42893,56924
42886,56918
42894,56916
42898,56905
42884,56888
42889,56900
42895,56895
42904,56904
42880,56900
42877,56898
42899,56894
42898,56911
42899,56902
42899,56910
42872,56918
42895,56897
42897,56896
42899,56889
42889,56881
42864,56878
42876,56867
42880,56878
42874,56868
42889,56867
42858,56867
42880,56855
42874,56871
42860,56868
42873,56875
42882,56876
42892,56866
42889,56867
42893,56880
42880,56873
42897,56872
42869,56894
42874,56878
42883,56881
42875,56882
42864,56866
42860,56866
42869,56863
42863,56875
42885,56858
42872,56863
42876,56864
42880,56863
42861,56864
42869,56869
42881,56863
42873,56866
42887,56879
42859,56879
42866,56863
42872,56871
42869,56830
42870,56880
42870,56873
42874,56882
42882,56885
42871,56879
42884,56874
42879,56890
42878,56883
42890,56870
42902,56874
42874,56867
42878,56871
42885,56899
42876,56897
42873,56921
42888,56907
42899,56884
42871,56868
42890,56887
42878,56886
42887,56901
42880,56888
42879,56878
42877,56891
42873,56914
42887,56898
42897,56893
42878,56889
42873,56905
42867,56894
42861,56901
42876,56893
42872,56894
42879,56896
42884,56923
42882,56912
42880,56908
42883,56897
42885,56907
42877,56916
42882,56904
42888,56922
42886,56934
42879,56926
42881,56922
42876,56922
42886,56904
42889,56915
42875,56939
42870,56925
42888,56918
42893,56915
42889,56930
42881,56916
42885,56922
42871,56923
42891,56932
42878,56942
42886,56925
42876,56930
42889,56920
42870,56926
42869,56927
42885,56926
42887,56934
42898,56933
42873,56936
42879,56919
42861,56898
42876,56883
42852,56860
42858,56840
42848,56842
42847,56832
42840,56802
42842,56793
42842,56799
42840,56809
42838,56809
42859,56808
42843,56797
42839,56805
42850,56808
42835,56799
42844,56778
42822,56792
42843,56807
42835,56787
42835,56796
42822,56789
42836,56771
42833,56767
42842,56773
42825,56754
42821,56755
42830,56757
42835,56782
42830,56759
42817,56757
42831,56761
42834,56766
42819,56769
42825,56762
42824,56750
42840,56770
42840,56793
42841,56759
42833,56758
42845,56768
42842,56754
42827,56766
42819,56754
42822,56751
42837,56758
42834,56748
42834,56744
42832,56761
42828,56748
42836,56758
42827,56768
42837,56758
42830,56757
42820,56753
42835,56739
42834,56760
42846,56751
42831,56756
42827,56761
42842,56776
42839,56770
42835,56772
42827,56778
42830,56779
42828,56769
42825,56760
42840,56776
42826,56770
42833,56771
42837,56759
42834,56769
42828,56773
42847,56779
42832,56760
42826,56756
42831,56766
42832,56769
42821,56779
42816,56762
42816,56769
42812,56763
42829,56771
42837,56782
42829,56753
42829,56768
42841,56768
42830,56777
42832,56775
42819,56775
42830,56779
42821,56763
42825,56787
42831,56785
42826,56773
42839,56778
42850,56774
42818,56776
42841,56780
42838,56776
42829,56773
42826,56771
42839,56769
42828,56781
42830,56773
42827,56793
42827,56787
42824,56804
42830,56780
42826,56783
42828,56786
42841,56821
42833,56783
42824,56801
42845,56800
42836,56800
42827,56799
42833,56802
42837,56800
42836,56806
42839,56805
42838,56806
42833,56827
42838,56818
42835,56817
42841,56819
42839,56816
42828,56802
42818,56792
42827,56777
42822,56749
42810,56746
42805,56724
42793,56699
42799,56691
42779,56685
42796,56657
42797,56677
42780,56654
42805,56654
42788,56661
42775,56657
42791,56642
42783,56667
42786,56650
42785,56663
42783,56660
42781,56637
42795,56649
42785,56640
42776,56611
42775,56629
42779,56616
42773,56607
42767,56618
42756,56597
42769,56588
42758,56595
42760,56593
42756,56597
42757,56579
42771,56584
42759,56586
42770,56598
42768,56581
42773,56580
42767,56593
42755,56603
42767,56594
42762,56592
42768,56578
42770,56581
42764,56565
42765,56567
42764,56578
42755,56553
42761,56561
42757,56565
42770,56549
42780,56555
42772,56560
42762,56546
42762,56569
42766,56584
42758,56559
42761,56569
42758,56565
42747,56565
42769,56548
42774,56574
42759,56582
42777,56572
42748,56576
42759,56577
42764,56562
42765,56569
42738,56571
42777,56567
42760,56598
42770,56615
42758,56580
42767,56542
42766,56560
42767,56575
42775,56578
42773,56589
42776,56593
42792,56584
42781,56595
42787,56598
42782,56594
42798,56608
42785,56592
42755,56617
42762,56569
42779,56596
42777,56602
42780,56593
42794,56607
42781,56598
42788,56616
42781,56616
42779,56624
42784,56617
42787,56609
42787,56614
42784,56633
42794,56627
42782,56617
42779,56629
42782,56653
42787,56637
42777,56642
42804,56630
42801,56635
42812,56640
42799,56636
42799,56647
42798,56656
42806,56649
42802,56669
42802,56657
42805,56655
42802,56645
42811,56666
42801,56664
42817,56664
42809,56656
42816,56671
42818,56667
42818,56683
42810,56672
42811,56661
42813,56681
42816,56697
42813,56675
42817,56687
42807,56678
42807,56662
42809,56643
42782,56623
42791,56587
42773,56589
42787,56574
42776,56553
42768,56541
42774,56539
42785,56544
42783,56552
42779,56546
42781,56561
42784,56553
42774,56551
42785,56555
42791,56562
42774,56563
42770,56564
42775,56554
42783,56551
42783,56556
42782,56546
42771,56529
42775,56525
42767,56532
42778,56532
42775,56533
42767,56500
42786,56525
42779,56528
42789,56539
42793,56532
42763,56541
42769,56546
42783,56534
42776,56535
42775,56547
42785,56550
42792,56545
42777,56543
42772,56521
42791,56547
42773,56524
42778,56538
42786,56536
42771,56519
42774,56526
42776,56534
42778,56527
42792,56548
42781,56542
42773,56543
42764,56548
42782,56556
42769,56547
42783,56549
42789,56550
42793,56549
42794,56554
42784,56553
42773,56569
42775,56572
42793,56549
42777,56566
42791,56570
42787,56575
42782,56583
42787,56567
42803,56561
42787,56563
42784,56579
42796,56597
42784,56571
42800,56589
42806,56597
42793,56586
42800,56578
42785,56591
42796,56577
42786,56604
42799,56604
42799,56594
42808,56606
42784,56600
42798,56609
42787,56610
42797,56606
42802,56606
42812,56627
42812,56610
42806,56621
42817,56640
42795,56618
42809,56625
42801,56631
42805,56642
42793,56634
42803,56644
42817,56639
42796,56642
42799,56653
42801,56641
42821,56651
42818,56651
42808,56656
42819,56661
42808,56657
42816,56661
42812,56678
42813,56666
42818,56680
42816,56669
42825,56687
42818,56679
42816,56687
42820,56680
42809,56673
42833,56682
42824,56693
42815,56701
42817,56710
42830,56716
42835,56716
42836,56722
42831,56719
42822,56712
42836,56715
42809,56701
42816,56688
42820,56655
42804,56659
42795,56626
42807,56622
42807,56621
42793,56621
42813,56621
42791,56630
42814,56628
42817,56644
42815,56624
42806,56635
42819,56639
42807,56656
42825,56641
42812,56653
42809,56651
42819,56652
42804,56647
42824,56647
42808,56632
42802,56640
42813,56630
42802,56636
42814,56635
42819,56625
42820,56650
42814,56637
42804,56648
42821,56654
42818,56667
42826,56652
42810,56669
42824,56665
42788,56677
42822,56681
42828,56676
42828,56663
42828,56670
42839,56691
42813,56669
42821,56679
42820,56679
42819,56698
42834,56700
42813,56685
42807,56673
42819,56677
42829,56679
42819,56683
42815,56693
42817,56694
42820,56693
42825,56703
42826,56701
42824,56706
42826,56716
42830,56704
42806,56739
42838,56721
42831,56739
42832,56729
42840,56737
42824,56713
42836,56686
42836,56714
42834,56721
42823,56744
42834,56756
42838,56728
42837,56727
42824,56751
42839,56746
42851,56748
42862,56737
42836,56757
42823,56750
42854,56744
42845,56740
42836,56755
42834,56754
42850,56755
42850,56764
42833,56776
42838,56769
42834,56765
42849,56780
42846,56769
42838,56782
42842,56789
42851,56799
42844,56793
42860,56799
42854,56808
42841,56799
42850,56792
42859,56800
42850,56804
42857,56797
42861,56822
42864,56829
42852,56814
42856,56821
42851,56835
42858,56830
42859,56820
42862,56832
42865,56823
42855,56830
42855,56830
42861,56842
42852,56851
42860,56850
42874,56866
42880,56843
42859,56869
42881,56851
42868,56864
42872,56854
42881,56875
42865,56862
42872,56867
42866,56878
42884,56856
42889,56868
42871,56867
42873,56861
42867,56856
42860,56808
42848,56814
42854,56804
42846,56788
42853,56791
42855,56782
42860,56784
42865,56793
42843,56793
42858,56805
42861,56807
42859,56805
42859,56831
42867,56836
42865,56838
42868,56822
42858,56827
42868,56817
42860,56827
42848,56819
42863,56833
42868,56805
42868,56819
42857,56814
42858,56806
42848,56813
42854,56806
42867,56828
42855,56821
42866,56829
42862,56825
42865,56825
42856,56857
42868,56855
42869,56847
42868,56833
42858,56821
42863,56850
42870,56848
42860,56852
42863,56843
42871,56838
42862,56857
42869,56823
42890,56837
42869,56840
42887,56860
42868,56862
42870,56844
42884,56847
42868,56851
42862,56860
42877,56875
42860,56867
42874,56866
42863,56859
42885,56893
42885,56888
42880,56876
42864,56874
42879,56878
42879,56878
42878,56896
42869,56881
42882,56892
42888,56898
42878,56870
42882,56877
42877,56893
42892,56888
42885,56900
42883,56904
42878,56903
42865,56890
42895,56894
42884,56910
42886,56915
42892,56913
42886,56886
42879,56920
42882,56903
42905,56893
42883,56910
42889,56912
42896,56912
42895,56919
42875,56926
42875,56919
42894,56928
42887,56927
42881,56921
42906,56931
42879,56934
42892,56939
42894,56950
42905,56943
42902,56941
42897,56937
42881,56945
42893,56963
42887,56946
42896,56944
42894,56953
42893,56939
42900,56939
42882,56952
42889,56952
42893,56961
42897,56959
42893,56951
42895,56956
42921,56978
42907,56976
42892,56964
42903,56977
42903,56960
42885,56967
42883,56944
42873,56919
42892,56914
42867,56918
42866,56899
42867,56911
42880,56881
42878,56881
42883,56887
42864,56891
42870,56896
42872,56901
42882,56911
42880,56920
42876,56919
42876,56912
42890,56911
42896,56918
42882,56901
42881,56907
42875,56919
42897,56901
42881,56909
42880,56900
42881,56902
42871,56902
42876,56897
42877,56903
42873,56916
42876,56896
42885,56906
42881,56905
42897,56913
42872,56929
42878,56921
42871,56928
42874,56923
42889,56937
42878,56935
42875,56921
42882,56922
42874,56916
42882,56916
42872,56919
42870,56918
42869,56904
42877,56927
42870,56914
42888,56933
42887,56924
42885,56929
42871,56924
42884,56925
42888,56893
42882,56929
42875,56937
42871,56937
42871,56950
42886,56942
42875,56964
42875,56929
42897,56941
42887,56947
42901,56951
42882,56964
42888,56938
42883,56946
42880,56973
42876,56967
42891,56956
42884,56929
42870,56950
42882,56964
42873,56940
42880,56963
42879,56957
42891,56968
42890,56970
42892,56979
42901,56959
42900,56972
42924,56976
42878,56975
42886,56982
42869,56974
42878,56992
42868,56979
42885,56988
42880,56977
42889,56992
42883,56990
42891,56995
42889,56994
42881,56986
42885,56986
42880,57007
42892,57008
42870,56994
42889,57013
42880,57010
42879,57020
42905,57001
42896,57010
42880,57011
42879,57030
42873,57037
42892,57018
42877,57011
42891,57026
42896,57029
42884,57023
42894,57029
42893,57023
42895,57039
42890,57041
42890,57042
42895,57039
42897,57029
42891,57036
42895,57038
42897,57045
42912,57030
42901,57057
42896,57041
42885,57028
42883,57008
42882,56996
42877,56985
42854,56962
42881,56975
42868,56958
42861,56942
42869,56953
42848,56952
42860,56952
42860,56948
42867,56946
42869,56956
42873,56969
42877,56975
42875,56966
42879,56986
42876,56980
42869,56972
42866,56962
42871,56951
42865,56963
42855,56941
42857,56953
42857,56954
42857,56933
42857,56945
42845,56931
42865,56950
42845,56941
42869,56944
42853,56958
42851,56962
42852,56960
42854,56957
42863,56957
42843,56959
42856,56954
42842,56965
42867,56968
42858,56966
42853,56956
42865,56951
42873,56961
42841,56947
42851,56950
42857,56960
42848,56959
42835,56950
42855,56972
42843,56952
42840,56957
42840,56952
42847,56961
42859,56954
42847,56951
42840,56978
42844,56969
42853,56974
42848,56957
42841,56961
42854,56982
42854,56964
42840,56987
42855,56979
42846,56972
42839,56974
42847,56971
42846,56968
42842,56994
42859,56986
42850,56978
42859,56977
42845,56995
42836,56974
42829,56976
42850,56993
42838,56979
42852,56975
42842,56985
42857,56988
42829,56991
42859,56988
42847,56986
42858,57001
42862,56982
42834,56990
42847,57001
42847,56989
42846,57008
42830,56993
42847,57005
42847,57014
42838,57005
42855,57008
42853,57019
42842,57019
42852,57021
42835,57030
42849,57021
42851,57015
42847,57024
42865,57013
42836,57019
42851,57020
42863,57019
42847,57044
42855,57028
42848,57018
42850,57035
42858,57033
42862,57041
42856,57035
42846,57050
42858,57041
42854,57026
42862,57060
42861,57048
42875,57051
42855,57039
42839,57056
42854,57052
42855,57065
42866,57057
42847,57073
42850,57051
42861,57054
42855,57064
42852,57050
42849,57041
42839,57028
42841,57015
42832,56994
42829,56993
42813,56969
42815,56963
42824,56973
42826,56977
42829,56975
42834,56963
42832,56990
42836,56975
42832,56972
42825,56990
42844,56994
42829,56974
42832,56985
42824,56965
42825,56975
42819,56969
42826,56974
42822,56963
42826,56956
42829,56959
42825,56961
42824,56956
42818,56963
42801,56956
42815,56961
42831,56977
42814,56973
42806,56956
42823,56955
42810,56972
42824,56983
42834,56965
42815,56971
42823,56978
42826,56969
42819,56966
42810,56948
42819,56946
42819,56951
42806,56947
42810,56958
42821,56967
42808,56955
42809,56957
42814,56990
42797,56968
42802,56965
42809,56969
42815,56953
42800,56967
42801,56964
42813,56992
42826,56974
42818,56972
42809,56983
42810,56980
42800,56965
42809,56974
42816,56982
42773,56977
42823,56983
42816,56996
42816,56978
42799,57009
42794,56950
42809,56960
42801,56953
42791,56977
42810,56991
42805,56978
42808,56989
42803,56985
42796,56974
42790,56988
42820,56991
42819,56989
42823,56986
42796,56996
42813,56990
42783,56976
42803,56983
42792,57007
42802,56994
42794,56989
42797,56996
42781,56993
42806,57007
42791,56997
42795,56995
42801,56996
42802,57023
42794,56992
42812,56999
42800,57018
42788,57004
42802,57022
42801,56995
42801,57004
42800,57021
42795,57004
42798,57026
42798,57017
42791,57022
42795,57018
42799,57017
42784,57002
42780,56996
42771,56965
42778,56967
42772,56943
42761,56935
42769,56932
42757,56909
42778,56910
42760,56935
42758,56916
42772,56921
42762,56931
42767,56935
42758,56927
42771,56928
42770,56933
42767,56901
42754,56915
42758,56907
42757,56913
42738,56905
42744,56901
42748,56892
42741,56912
42739,56877
42736,56872
42746,56877
42729,56858
42741,56869
42745,56878
42741,56894
42742,56893
42741,56884
42738,56886
42746,56895
42749,56892
42741,56879
42736,56888
42745,56876
42742,56887
42727,56875
42755,56878
42733,56866
42715,56870
42710,56886
42733,56868
42730,56889
42721,56879
42722,56875
42726,56867
42728,56886
42726,56877
42718,56872
42737,56870
42723,56872
42708,56871
42725,56884
42732,56870
42723,56871
42719,56867
42723,56877
42715,56873
42718,56878
42706,56886
42720,56881
42712,56868
42721,56884
42725,56870
42719,56891
42712,56874
42726,56888
42718,56890
42716,56878
42714,56885
42723,56885
42709,56890
42712,56871
42706,56892
42720,56884
42716,56892
42718,56883
42715,56883
42703,56879
42722,56885
42717,56882
42707,56872
42710,56868
42703,56890
42716,56901
42710,56904
42713,56897
42715,56899
42720,56898
42717,56896
42725,56887
42717,56908
42717,56913
42720,56890
42703,56895
42718,56903
42706,56896
42719,56911
42711,56902
42710,56923
42705,56917
42721,56910
42711,56910
42706,56925
42712,56910
42705,56923
42712,56924
42701,56912
42715,56912
42722,56933
42717,56917
42719,56932
42716,56941
42696,56921
42719,56934
42729,56936
42711,56936
42730,56935
42725,56949
42723,56940
42724,56942
42742,56942
42723,56938
42710,56944
42724,56949
42713,56953
42725,56959
42724,56959
42715,56954
42718,56963
42726,56979
42722,56972
42730,56961
42728,56963
42708,56945
42693,56925
42709,56917
42700,56894
42708,56877
42697,56886
42697,56861
42700,56868
42692,56865
42704,56864
42694,56855
42692,56880
42697,56880
42687,56890
42707,56881
42695,56882
42698,56869
42694,56874
42701,56884
42676,56892
42690,56875
42689,56867
42679,56859
42680,56861
42696,56858
42685,56851
42678,56868
42690,56844
42684,56854
42696,56852
42686,56852
42688,56865
42686,56854
42704,56870
42685,56851
42692,56860
42673,56876
42683,56844
42693,56858
42702,56849
42684,56850
42684,56847
42697,56855
42689,56860
42690,56862
42679,56873
42676,56857
42679,56848
42691,56864
42691,56859
42690,56851
42690,56867
42690,56868
42683,56860
42683,56865
42690,56842
42685,56876
42687,56863
42690,56865
42692,56874
42695,56868
42691,56862
42685,56876
42673,56878
42686,56868
42719,56874
42692,56877
42688,56859
42687,56865
42685,56878
42681,56889
42686,56903
42698,56893
42690,56870
42691,56889
42691,56861
42692,56880
42683,56863
42693,56901
42678,56877
42699,56886
42685,56881
42700,56891
42712,56899
42689,56890
42685,56877
42674,56903
42665,56884
42663,56888
42684,56889
42679,56870
42692,56895
42695,56911
42685,56889
42684,56894
42688,56887
42687,56908
42679,56919
42693,56903
42686,56907
42681,56903
42688,56906
42684,56899
42682,56912
42676,56916
42693,56916
42696,56910
42698,56932
42685,56921
42699,56917
42693,56926
42685,56921
42696,56924
42711,56942
42693,56917
42696,56926
42696,56935
42697,56942
42686,56946
42687,56945
42702,56926
42698,56929
42683,56932
42696,56951
42694,56950
42703,56937
42699,56932
42697,56912
42687,56905
42677,56884
42664,56869
42678,56878
42655,56862
42665,56847
42666,56857
42670,56845
42662,56846
42666,56856
42671,56860
42681,56865
42680,56863
42680,56869
42655,56867
42676,56875
42662,56865
42666,56855
42682,56849
42667,56843
42668,56861
42679,56851
42667,56833
42654,56852
42669,56821
42667,56830
42662,56839
42664,56841
42673,56843
42680,56850
42675,56852
42663,56831
42664,56849
42682,56863
42658,56846
42669,56857
42668,56865
42649,56860
42652,56835
42662,56847
42652,56842
42662,56849
42669,56844
42659,56854
42654,56854
42674,56841
42663,56846
42668,56845
42672,56852
42665,56834
42650,56861
42659,56851
42653,56864
42664,56844
42666,56862
42673,56856
42676,56861
42672,56861
42664,56887
42670,56877
42671,56861
42670,56858
42664,56855
42667,56865
42677,56868
42672,56887
42678,56871
42659,56866
42665,56868
42670,56886
42657,56867
42679,56885
42672,56884
42662,56884
42670,56872
42654,56894
42670,56876
42662,56879
42674,56890
42672,56884
42674,56891
42687,56880
42670,56882
42679,56897
42660,56887
42685,56888
42674,56894
42675,56887
42686,56901
42667,56896
42673,56902
42664,56912
42674,56901
42667,56895
42677,56903
42677,56921
42669,56910
42681,56924
42672,56916
42677,56922
42694,56919
42685,56924
42691,56923
42680,56916
42685,56927
42689,56915
42695,56941
42681,56936
42696,56931
42680,56939
42687,56946
42693,56947
42686,56944
42698,56935
42680,56932
42697,56938
42687,56962
42697,56944
42697,56951
42680,56968
42699,56958
42685,56948
42688,56954
42699,56968
42695,56958
42697,56991
42691,56968
42692,56984
42693,56973
42692,56983
42716,56975
42703,56980
42683,56970
42691,56954
42684,56940
42687,56949
42672,56908
42687,56887
42671,56906
42672,56895
42669,56887
42676,56898
42671,56894
42693,56900
42670,56907
42679,56895
42691,56910
42687,56919
42683,56914
42692,56934
42683,56905
42681,56918
42694,56921
42686,56912
42678,56920
42677,56898
42663,56908
42673,56905
42681,56902
42669,56897
42695,56904
42688,56902
42667,56894
42673,56909
42686,56914
42699,56921
42701,56931
42696,56918
42674,56925
42693,56918
42679,56943
42686,56933
42700,56934
42688,56939
42693,56923
42685,56938
42678,56928
42696,56947
42681,56931
42692,56921
42681,56917
42696,56929
42687,56916
42669,56924
42705,56928
42679,56942
42688,56941
42684,56934
42688,56934
42688,56936
42680,56955
42704,56944
42679,56937
42701,56952
42694,56948
42684,56975
42704,56976
42693,56933
42710,56958
42700,56936
42692,56954
42708,56970
42701,56952
42717,56963
42712,56974
42698,56975
42702,56977
42726,56973
42736,56967
42711,56979
42683,56981
42705,56969
42698,56976
42696,56975
42703,57001
42719,56999
42711,56984
42705,57004
42703,56986
42716,57004
42699,56991
42716,57006
42719,56999
42718,57001
42717,57007
42708,57004
42714,57019
42727,57023
42715,57006
42716,57025
42718,57011
42723,57016
42722,57030
42731,57029
42730,57023
42721,57025
42725,57023
42728,57043
42716,57039
42722,57023
42728,57040
42734,57047
42734,57030
42726,57029
42737,57046
42716,57053
42739,57051
42734,57053
42734,57063
42725,57069
42726,57065
42737,57054
42736,57058
42733,57071
42731,57063
42745,57060
42733,57075
42739,57065
42740,57074
42723,57072
42723,57069
42739,57057
42737,57052
42735,57051
42718,57025
42719,57008
42704,57006
42706,56992
42722,56979
42712,56993
42696,56996
42695,56982
42726,56994
42715,57005
42716,57016
42717,57006
42728,56999
42715,57016
42727,57011
42719,57016
42731,57012
42705,57017
42723,57019
42716,57007
42726,57013
42710,57006
42735,57013
42713,57008
42721,57017
42720,57007
42713,57014
42716,57023
42720,57007
42712,57029
42722,57036
42721,57018
42716,57028
42725,57027
42731,57050
42727,57013
42714,57023
42706,57029
42726,57040
42721,57035
42731,57021
42729,57035
42708,57019
42712,57024
42703,57028
42718,57029
42727,57028
42715,57033
42712,57036
42720,57020
42720,57055
42726,57042
42723,57037
42726,57040
42721,57047
42731,57044
42720,57041
42726,57063
42741,57056
42737,57049
42724,57058
42735,57056
42732,57051
42732,57052
42734,57058
42729,57056
42726,57052
42740,57064
42718,57069
42733,57062
42744,57074
42729,57063
42715,57067
42723,57060
42738,57065
42719,57061
42730,57077
42748,57089
42726,57076
42733,57096
42748,57076
42727,57072
42737,57080
42756,57081
42731,57086
42747,57089
42733,57086
42730,57087
42732,57091
42731,57078
42728,57095
42737,57078
42738,57093
42737,57088
42731,57112
42731,57095
42740,57104
42733,57105
42738,57106
42747,57109
42738,57109
42739,57106
42742,57113
42741,57112
42740,57124
42740,57133
42742,57114
42747,57115
42752,57127
42740,57121
42746,57119
42745,57124
42735,57117
42741,57119
42743,57111
42733,57081
42714,57073
42727,57077
42720,57047
42720,57041
42719,57047
42719,57039
42718,57030
42717,57050
42716,57030
42720,57061
42732,57064
42741,57043
42730,57064
42734,57056
42723,57059
42718,57051
42729,57068
42732,57053
42725,57057
42726,57046
42716,57043
42721,57037
42707,57037
42711,57046
42712,57036
42704,57041
42713,57042
42708,57033
42721,57040
42713,57045
42718,57052
42714,57053
42715,57052
42719,57049
42723,57053
42702,57049
42705,57056
42727,57068
42716,57050
42719,57049
42715,57047
42723,57045
42711,57057
42719,57056
42708,57050
42705,57061
42713,57043
42696,57040
42713,57045
42706,57057
42717,57050
42718,57058
42709,57037
42707,57059
42719,57058
42708,57059
42718,57060
42716,57079
42714,57062
42724,57062
42715,57073
42717,57059
42735,57062
42729,57068
42704,57061
42712,57071
42713,57056
42711,57094
42711,57082
42708,57059
42719,57045
42722,57059
42711,57057
42730,57055
42711,57073
42714,57075
42709,57082
42720,57087
42714,57071
42745,57073
42749,57083
42704,57067
42721,57079
42683,57082
42709,57099
42695,57080
42718,57100
42710,57097
42721,57088
42721,57096
42728,57077
42726,57088
42726,57104
42721,57116
42713,57113
42737,57101
42716,57111
42721,57096
42722,57111
42722,57110
42726,57113
42726,57097
42715,57108
42723,57103
42740,57125
42710,57113
42717,57127
42718,57133
42751,57120
42723,57126
42729,57113
42739,57135
42726,57130
42731,57138
42729,57133
42738,57149
42732,57144
42731,57131
42735,57155
42730,57136
42740,57142
42740,57138
42741,57144
42739,57141
42745,57150
42751,57138
42736,57160
42722,57163
42734,57151
42736,57161
42741,57148
42729,57148
42733,57139
42719,57115
42717,57110
42715,57104
42710,57079
42709,57064
42721,57076
42719,57060
42700,57069
42719,57072
42729,57087
42728,57087
42710,57088
42721,57093
42723,57099
42730,57093
42724,57116
42719,57107
42747,57108
42727,57089
42720,57088
42724,57107
42718,57080
42728,57103
42719,57066
42709,57070
42729,57083
42721,57074
42708,57081
42713,57098
42727,57104
42725,57086
42737,57094
42719,57096
42735,57108
42730,57099
42721,57108
42730,57113
42733,57108
42724,57108
42722,57103
42730,57105
42712,57110
42724,57101
42723,57112
42724,57088
42731,57118
42734,57096
42728,57100
42724,57105
42740,57114
42722,57112
42730,57114
42740,57116
42725,57117
42733,57122
42745,57133
42742,57134
42738,57125
42748,57135
42729,57130
42734,57137
42729,57135
42744,57138
42733,57145
42745,57131
42734,57138
42745,57141
42738,57140
42745,57143
42746,57138
42737,57141
42733,57132
42727,57151
42753,57161
42739,57140
42755,57140
42740,57150
42717,57166
42755,57148
42731,57161
42735,57155
42745,57159
42734,57145
42748,57161
42744,57149
42750,57166
42743,57163
42746,57156
42742,57175
42740,57155
42749,57158
42755,57171
42743,57178
42747,57172
42757,57181
42759,57171
42751,57185
42751,57165
42747,57171
42754,57187
42764,57199
42752,57189
42743,57188
42743,57185
42743,57184
42753,57201
42748,57184
42743,57191
42765,57210
42748,57201
42759,57200
42758,57207
42749,57195
42769,57201
42752,57201
42755,57203
42754,57223
42759,57208
42757,57211
42754,57215
42758,57209
42767,57174
42759,57166
42741,57153
42744,57149
42750,57142
42733,57142
42737,57129
42738,57132
42748,57138
42746,57153
42750,57149
42742,57159
42747,57163
42745,57175
42745,57168
42747,57177
42741,57157
42756,57171
42757,57157
42751,57151
42754,57157
42767,57168
42746,57150
42753,57150
42736,57159
42747,57153
42735,57170
42741,57152
42756,57157
42750,57167
42752,57174
42755,57162
42749,57196
42764,57169
42758,57173
42759,57183
42758,57180
42750,57184
42747,57172
42756,57179
42762,57185
42749,57191
42752,57204
42757,57168
42763,57172
42756,57175
42744,57172
42765,57172
42762,57201
42748,57187
42746,57198
42746,57200
42753,57195
42755,57192
42743,57210
42753,57209
42752,57204
42762,57204
42753,57206
42781,57212
42768,57217
42755,57199
42768,57203
42750,57210
42768,57228
42764,57221
42758,57235
42762,57233
42778,57224
42758,57185
42758,57190
42766,57213
42772,57238
42770,57231
42765,57246
42764,57225
42768,57240
42777,57232
42792,57234
42787,57243
42777,57245
42778,57242
42772,57241
42761,57256
42775,57241
42772,57241
42790,57257
42779,57254
42784,57249
42790,57263
42783,57258
42767,57256
42773,57254
42780,57269
42771,57260
42783,57244
42769,57284
42790,57274
42795,57282
42777,57275
42794,57274
42787,57269
42783,57270
42789,57280
42789,57269
42782,57279
42786,57271
42785,57279
42776,57294
42791,57299
42788,57299
42783,57288
42801,57286
42798,57290
42793,57293
42797,57305
42803,57296
42788,57311
42796,57308
42790,57289
42784,57305
42790,57316
42809,57308
42801,57303
42819,57308
42790,57314
42808,57307
42794,57308
42793,57305
42808,57319
42787,57333
42802,57326
42788,57319
42814,57326
42781,57328
42784,57301
42787,57299
42794,57272
42785,57255
42782,57260
42784,57245
42777,57262
42774,57247
42788,57248
42779,57265
42782,57259
42795,57248
42793,57265
42779,57249
42796,57263
42779,57275
42807,57282
42794,57282
42802,57284
42778,57271
42806,57280
42789,57277
42799,57270
42793,57279
42786,57275
42778,57274
42797,57261
42786,57266
42786,57261
42802,57271
42786,57276
42772,57293
42798,57279
42800,57290
42795,57302
42802,57312
42808,57314
42802,57291
42808,57289
42791,57307
42793,57301
42797,57283
42805,57306
42805,57288
42809,57284
42794,57295
42791,57296
42818,57300
42798,57297
42804,57294
42814,57294
42799,57312
42803,57311
42813,57296
42801,57312
42816,57321
42800,57325
42815,57326
42804,57297
42825,57305
42816,57318
42798,57307
42804,57335
42822,57339
42821,57326
42796,57325
42796,57334
42809,57322
42815,57338
42814,57337
42813,57342
42816,57334
42812,57333
42812,57338
42819,57331
42817,57343
42816,57337
42826,57348
42817,57333
42806,57347
42829,57344
42833,57339
42816,57355
42807,57354
42830,57353
42827,57365
42813,57360
42813,57378
42825,57356
42826,57371
42823,57360
42820,57360
42822,57376
42829,57377
42834,57377
42831,57389
42815,57362
42827,57384
42844,57385
42836,57381
42819,57377
42850,57387
42826,57404
42815,57378
42827,57391
42834,57373
42836,57383
42837,57392
42829,57404
42823,57387
42840,57370
42832,57394
42826,57388
42844,57389
42840,57403
42849,57409
42833,57410
42828,57392
42850,57409
42845,57413
42855,57404
42844,57411
42845,57421
42833,57412
42826,57419
42843,57421
42840,57434
42849,57419
42838,57430
42846,57422
42841,57440
42861,57432
42851,57402
42852,57422
42843,57400
42838,57394
42829,57365
42819,57372
42833,57358
42831,57352
42823,57337
42821,57340
42822,57340
42819,57339
42826,57337
42821,57346
42818,57367
42816,57336
42804,57326
42818,57335
42797,57307
42788,57312
42786,57304
42783,57302
42788,57287
42782,57296
42777,57294
42777,57299
42774,57285
42791,57291
42777,57278
42779,57285
42773,57292
42786,57302
42787,57291
42785,57303
42776,57308
42796,57308
42802,57284
42791,57320
42795,57321
42787,57316
42788,57321
42793,57320
42781,57302
42783,57328
42784,57325
42765,57318
42812,57310
42793,57312
42803,57344
42794,57307
42798,57327
42807,57346
42790,57343
42805,57329
42797,57294
42813,57328
42803,57321
42806,57329
42809,57326
42808,57330
42794,57349
42805,57348
42803,57327
42814,57337
42831,57341
42802,57347
42779,57336
42773,57357
42802,57284
42798,57356
42806,57344
42808,57351
42809,57350
42810,57348
42798,57342
42804,57350
42818,57351
42812,57344
42831,57353
42802,57354
42804,57347
42798,57373
42816,57364
42821,57354
42793,57354
42793,57366
42809,57357
42834,57367
42820,57367
42820,57386
42807,57375
42822,57379
42815,57380
42818,57378
42809,57366
42807,57388
42799,57365
42827,57376
42819,57379
42819,57371
42825,57383
42808,57393
42825,57384
42819,57388
42815,57385
42825,57389
42830,57392
42835,57389
42830,57385
42818,57403
42815,57400
42835,57400
42819,57407
42828,57411
42829,57402
42824,57397
42826,57420
42825,57419
42826,57409
42829,57408
42821,57415
42838,57411
42816,57426
42835,57409
42833,57431
42816,57397
42805,57393
42820,57362
42821,57364
42811,57352
42798,57332
42799,57319
42789,57316
42802,57315
42805,57323
42810,57313
42786,57322
42806,57317
42802,57322
42796,57330
42803,57324
42809,57340
42811,57340
42806,57328
42810,57318
42801,57335
42786,57312
42803,57313
42795,57300
42794,57300
42794,57284
42800,57289
42815,57305
42790,57295
42786,57275
42785,57286
42794,57292
42796,57287
42794,57314
42799,57294
42780,57301
42790,57299
42793,57297
42780,57299
42793,57295
42801,57294
42788,57299
42792,57277
42787,57288
42787,57293
42785,57282
42801,57284
42794,57282
42789,57286
42787,57275
42785,57283
42784,57288
42777,57286
42785,57283
42782,57283
42790,57283
42790,57273
42795,57299
42780,57282
42790,57291
42775,57293
42788,57287
42797,57289
42791,57295
42774,57294
42780,57291
42784,57288
42797,57303
42783,57291
42780,57287
42781,57294
42793,57291
42789,57295
42788,57301
42780,57297
42779,57301
42796,57298
42788,57297
42801,57299
42797,57293
42790,57301
42786,57299
42791,57301
42781,57321
42777,57297
42782,57308
42786,57299
42782,57308
42786,57296
42803,57320
42793,57316
42795,57316
42784,57297
42799,57318
42774,57312
42792,57317
42790,57307
42785,57317
42789,57314
42796,57311
42783,57334
42786,57326
42799,57328
42795,57334
42797,57337
42790,57333
42801,57319
42809,57317
42788,57340
42809,57323
42802,57326
42799,57336
42805,57331
42803,57340
42809,57346
42798,57359
42809,57364
42798,57357
42809,57318
42811,57352
42813,57355
42816,57356
42803,57352
42812,57351
42803,57349
42812,57356
42819,57371
42812,57356
42817,57368
42818,57360
42814,57362
42816,57360
42815,57374
42830,57366
42817,57385
42810,57391
42804,57361
42810,57370
42812,57357
42802,57352
42810,57322
42789,57305
42773,57311
42790,57287
42788,57266
42796,57270
42773,57267
42790,57276
42793,57264
42783,57273
42792,57272
42792,57262
42785,57279
42782,57281
42804,57283
42788,57270
42787,57278
42790,57296
42790,57278
42779,57292
42787,57275
42785,57256
42775,57255
42795,57249
42792,57242
42775,57240
42770,57239
42773,57251
42776,57261
42779,57238
42801,57255
42811,57264
42797,57280
42786,57264
42797,57258
42768,57269
42788,57283
42790,57277
42783,57272
42780,57239
42789,57247
42783,57233
42799,57245
42770,57251
42778,57235
42780,57244
42790,57235
42775,57258
42799,57242
42790,57255
42784,57248
42777,57248
42756,57250
42761,57248
42768,57255
42782,57270
42777,57256
42797,57259
42783,57266
42790,57251
42771,57267
42794,57281
42784,57255
42796,57272
42801,57256
42775,57272
42800,57256
42773,57263
42787,57269
42796,57265
42791,57266
42802,57249
42793,57239
42794,57254
42775,57275
42795,57269
42799,57267
42787,57262
42794,57259
42788,57256
42774,57278
42802,57273
42788,57273
42790,57280
42779,57280
42784,57276
42797,57278
42797,57276
42790,57278
42794,57265
42794,57291
42796,57290
42804,57279
42802,57287
42794,57300
42802,57290
42802,57298
42795,57287
42799,57275
42793,57289
42804,57288
42805,57302
42798,57294
42803,57280
42797,57297
42787,57307
42797,57310
42810,57303
42798,57300
42810,57304
42814,57299
42814,57297
42804,57313
42800,57311
42807,57315
42791,57315
42803,57328
42809,57302
42810,57309
42792,57296
42807,57295
42801,57269
42804,57231
42786,57233
42767,57218
42767,57207
42779,57202
42786,57210
42771,57197
42767,57183
42772,57202
42761,57193
42782,57218
42785,57212
42775,57203
42781,57201
42772,57222
42777,57201
42774,57204
42774,57193
42785,57202
42776,57182
42773,57191
42754,57181
42766,57172
42769,57186
42759,57165
42770,57161
42764,57175
42771,57162
42764,57183
42778,57165
42767,57147
42781,57168
42767,57157
42775,57171
42761,57154
42770,57159
42760,57158
42761,57182
42765,57165
42762,57163
42773,57147
42761,57165
42760,57171
42774,57142
42760,57157
42756,57155
42753,57133
42761,57160
42761,57142
42760,57155
42757,57150
42751,57130
42769,57143
42752,57149
42761,57160
42757,57169
42762,57159
42753,57148
42764,57148
42755,57158
42769,57140
42760,57150
42751,57156
42754,57169
42755,57153
42767,57149
42772,57157
42761,57161
42770,57153
42771,57149
42775,57164
42770,57157
42761,57155
42770,57165
42780,57158
42778,57167
42760,57139
42769,57168
42767,57156
42767,57150
42785,57149
42763,57163
42754,57159
42769,57153
42782,57175
42774,57159
42764,57173
42766,57156
42773,57178
42782,57165
42766,57156
42785,57179
42783,57177
42768,57171
42781,57184
42767,57167
42784,57169
42770,57171
42772,57165
42767,57177
42775,57168
42767,57155
42761,57153
42730,57115
42704,57026
42681,56983
42658,56962
42655,56966
42691,57053
42682,57052
42658,57063
42712,57121
42750,57214
42785,57279
42809,57329
42827,57363
42851,57388
42877,57431
42899,57459
42881,57484
42889,57492
42896,57512
42889,57508
42901,57520
42896,57531
42906,57568
42921,57590
42963,57625
42957,57642
42973,57652
42967,57672
42978,57680
42969,57666
42974,57682
42979,57674
42965,57648
42964,57640
42962,57616
42966,57618
42973,57610
42965,57597
42959,57589
42957,57587
42961,57582
42973,57592
42956,57572
42949,57598
42962,57597
42968,57602
42962,57578
42950,57596
42962,57585
42957,57593
42960,57593
42954,57598
42962,57568
42953,57563
42938,57547
42935,57554
42937,57545
42941,57531
42932,57529
42932,57536
42938,57538
42934,57554
42939,57501
42947,57500
42935,57518
42937,57530
42946,57530
42932,57540
42935,57527
42928,57518
42942,57509
42963,57498
42970,57489
42960,57478
42921,57482
42951,57476
42913,57489
42930,57482
42939,57493
42945,57481
42934,57481
42956,57469
42925,57482
42932,57488
42929,57497
42947,57482
42952,57502
42943,57466
42945,57481
42940,57490
42936,57480
42949,57483
42940,57487
42944,57486
42931,57481
42943,57476
42951,57494
42956,57503
42946,57487
42936,57500
42957,57482
42944,57474
42950,57498
42945,57485
42957,57485
42958,57477
42940,57500
42938,57493
42952,57496
42961,57471
42950,57494
42966,57497
42939,57493
42956,57486
42957,57491
42955,57482
42940,57487
42951,57494
42979,57494
42952,57493
42967,57494
42963,57500
42961,57484
42954,57507
42963,57497
42954,57513
42971,57524
42960,57497
42963,57509
42965,57520
42980,57522
42966,57511
42973,57517
42964,57518
42954,57517
42972,57525
42982,57510
42975,57518
42964,57519
42976,57517
42967,57530
42974,57519
42972,57524
42978,57525
42977,57533
42971,57520
42980,57549
42975,57543
42976,57548
42977,57556
42982,57555
42978,57539
42979,57540
42982,57517
42963,57507
42979,57500
42957,57474
42949,57454
42948,57434
42955,57427
42948,57424
42937,57414
42942,57405
42933,57415
42949,57407
42932,57406
42940,57423
42943,57424
42947,57407
42947,57412
42938,57411
42940,57405
42957,57419
42941,57418
42941,57410
42935,57404
42935,57389
42946,57388
42920,57378
42936,57389
42931,57377
42941,57375
42945,57381
42941,57371
42928,57377
42938,57368
42928,57368
42933,57381
42946,57368
42932,57379
42928,57371
42928,57378
42939,57367
42938,57377
42940,57352
42933,57360
42931,57361
42930,57348
42934,57350
42939,57344
42944,57346
42927,57362
42922,57358
42926,57356
42921,57345
42941,57354
42943,57347
42931,57360
42928,57354
42943,57363
42934,57375
42941,57342
42922,57360
42941,57352
42955,57367
42927,57365
42932,57346
42941,57368
42937,57373
42945,57367
42950,57360
42943,57362
42949,57373
42939,57362
42940,57374
42955,57362
42944,57361
42940,57376
42933,57366
42955,57362
42951,57375
42943,57365
42949,57374
42939,57366
42961,57363
42951,57392
42947,57390
42948,57380
42953,57364
42949,57389
42965,57379
42943,57381
42963,57394
42948,57394
42948,57377
42952,57387
42938,57375
42934,57354
42934,57333
42930,57310
42930,57286
42915,57287
42920,57287
42927,57278
42923,57267
42926,57280
42923,57261
42922,57273
42930,57263
42908,57244
42915,57271
42930,57264
42933,57262
42916,57262
42910,57262
42922,57236
42924,57255
42903,57227
42913,57230
42912,57225
42899,57209
42911,57199
42930,57220
42927,57221
42907,57203
42916,57215
42919,57215
42914,57210
42920,57212
42920,57224
42925,57229
42906,57233
42905,57226
42932,57224
42925,57218
42899,57203
42919,57215
42914,57203
42915,57195
42917,57196
42900,57200
42905,57216
42908,57201
42924,57192
42902,57201
42911,57197
42905,57169
42916,57192
42909,57202
42923,57194
42916,57194
42912,57198
42934,57207
42914,57198
42918,57200
42925,57201
42906,57207
42920,57186
42922,57224
42930,57239
42918,57208
42913,57182
42926,57195
42926,57194
42932,57209
42923,57195
42922,57203
42918,57213
42922,57221
42943,57196
42944,57221
42944,57210
42934,57228
42909,57205
42908,57201
42928,57227
42938,57228
42935,57230
42928,57248
42926,57231
42937,57225
42937,57232
42949,57233
42931,57238
42943,57241
42951,57239
42941,57247
42936,57238
42954,57245
42950,57259
42939,57260
42945,57255
42935,57274
42963,57262
42942,57263
42964,57248
42935,57263
42962,57274
42965,57272
42961,57293
42966,57289
42946,57291
42977,57283
42959,57285
42968,57286
42962,57289
42970,57290
42966,57301
42957,57302
42975,57307
42967,57306
42968,57316
42976,57305
42978,57311
42975,57320
42975,57303
42974,57322
42982,57312
42976,57327
42981,57308
42977,57313
42987,57330
42987,57340
42976,57339
42973,57341
42990,57346
42998,57345
42994,57344
42987,57359
43001,57339
42986,57348
42977,57331
42975,57318
42969,57291
42969,57300
42968,57296
42970,57266
42967,57283
42973,57278
42967,57280
42965,57276
42980,57287
42990,57299
42981,57288
42982,57304
42978,57301
42976,57308
42979,57303
42966,57305
42991,57290
42965,57296
42962,57301
42972,57284
42976,57282
42972,57294
42981,57293
42974,57294
42982,57287
42986,57306
42984,57306
42974,57305
42972,57309
42991,57317
42990,57300
42995,57327
42982,57311
42987,57311
42981,57317
42992,57314
42998,57323
42992,57322
42979,57323
42988,57329
42989,57325
42993,57309
42988,57335
42992,57329
42986,57315
42992,57335
43004,57338
42990,57338
42983,57337
42992,57328
42985,57341
42992,57351
42998,57345
42990,57352
42999,57354
43001,57344
43002,57345
43003,57352
42997,57353
42992,57364
42999,57360
43007,57363
43000,57378
43007,57364
43002,57376
43004,57369
42994,57362
43007,57386
43002,57375
43007,57373
43004,57380
42999,57391
43010,57399
43000,57384
43004,57381
43007,57378
43020,57392
43002,57379
43016,57397
43006,57397
43019,57413
43013,57400
43013,57419
43010,57403
42998,57417
43022,57410
43013,57418
43002,57418
43022,57412
43011,57421
43014,57416
43012,57424
43026,57430
43021,57436
43029,57419
43023,57445
43013,57446
43025,57433
43030,57431
43025,57429
43021,57434
43021,57464
43021,57463
43013,57461
43019,57466
43016,57468
43019,57461
43029,57483
43025,57472
43031,57484
43033,57467
43046,57469
43018,57492
43024,57484
43035,57481
43037,57496
43025,57486
43031,57498
43050,57497
43030,57488
43055,57501
43046,57509
43056,57503
43039,57508
43031,57508
43027,57511
43045,57520
43047,57526
43037,57514
43041,57511
43050,57480
43041,57484
43038,57478
43024,57462
43033,57463
43030,57461
43021,57461
43036,57468
43026,57470
43018,57467
43023,57472
43039,57479
43039,57483
43027,57488
43028,57490
43037,57484
43032,57486
43041,57471
43027,57474
43028,57477
43037,57482
43024,57474
43018,57466
43024,57474
43028,57473
43024,57471
43019,57460
43018,57489
43030,57504
43028,57494
43025,57480
43035,57470
43025,57504
43038,57476
43034,57506
43039,57511
43033,57492
43028,57492
43036,57490
43032,57507
43027,57503
43028,57485
43038,57494
43023,57488
43041,57515
43030,57516
43039,57515
43046,57512
43040,57498
43022,57475
43045,57488
43038,57493
43034,57526
43042,57518
43051,57522
43036,57517
43033,57523
43040,57543
43054,57520
43071,57536
43057,57539
43029,57513
43031,57534
43013,57545
43025,57560
43042,57546
43032,57549
43032,57528
43033,57550
43037,57543
43036,57546
43052,57569
43031,57555
43038,57560
43048,57550
43034,57556
43047,57557
43038,57551
43042,57554
43048,57572
43038,57563
43036,57556
43053,57579
43048,57574
43055,57554
43049,57575
43051,57571
43028,57572
43045,57581
43054,57581
43050,57589
43036,57567
43044,57592
43042,57603
43045,57590
43057,57587
43053,57588
43062,57605
43052,57580
43050,57609
43039,57599
43056,57592
43063,57611
43056,57604
43063,57617
43065,57620
43062,57611
43063,57621
43061,57610
43060,57619
43064,57612
43068,57621
43059,57608
43048,57628
43072,57608
43052,57621
43062,57629
43077,57653
43066,57626
43073,57646
43071,57629
43068,57635
43049,57637
43076,57637
43061,57643
43068,57652
43058,57651
43068,57644
43058,57655
43072,57670
43071,57645
43075,57669
43071,57662
43062,57653
43062,57671
43068,57660
43060,57649
43042,57625
43051,57610
43055,57622
43057,57614
43061,57595
43045,57602
43052,57589
43062,57608
43050,57594
43052,57627
43062,57621
43041,57603
43058,57618
43055,57645
43064,57609
43052,57605
43072,57647
43054,57623
43034,57637
43061,57608
43049,57600
43052,57615
43037,57601
43062,57610
43050,57611
43066,57624
43055,57614
43043,57609
43060,57632
43044,57619
43054,57625
43071,57625
43059,57633
43055,57633
43047,57626
43062,57622
43053,57612
43051,57618
43048,57623
43051,57628
43050,57634
43056,57621
43055,57631
43051,57629
43053,57612
43052,57629
43054,57627
43047,57630
43058,57630
43051,57630
43059,57618
43043,57648
43054,57619
43038,57640
43043,57635
43064,57636
43054,57649
43050,57651
43070,57621
43058,57643
43056,57651
43046,57652
43079,57652
43056,57650
43064,57649
43055,57656
43054,57650
43054,57654
43056,57655
43058,57654
43058,57662
43040,57662
43053,57655
43054,57652
43058,57658
43058,57654
43058,57662
43052,57667
43061,57674
43059,57673
43071,57687
43044,57670
43069,57675
43052,57677
43063,57677
43062,57673
43068,57684
43055,57658
43056,57688
43061,57687
43064,57683
43050,57675
43043,57680
43070,57689
43066,57680
43068,57676
43051,57702
43062,57688
43067,57700
43064,57700
43067,57701
43063,57702
43048,57686
43069,57697
43060,57705
43060,57706
43058,57698
43081,57700
43051,57704
43064,57701
43055,57698
43067,57711
43067,57710
43065,57727
43070,57708
43060,57726
43067,57725
43067,57723
43074,57722
43068,57727
43068,57723
43061,57720
43072,57719
43078,57717
43086,57732
43079,57740
43075,57727
43064,57740
43061,57729
43065,57732
43066,57725
43075,57737
43067,57741
43070,57744
43079,57726
43072,57730
43057,57714
43073,57703
43058,57697
43060,57668
43045,57685
43038,57679
43054,57649
43046,57665
43058,57659
43044,57667
43057,57644
43038,57669
43048,57668
43048,57663
43041,57669
43052,57669
43045,57672
43050,57664
43033,57656
43044,57667
43064,57649
43041,57648
43033,57661
43036,57627
43035,57662
43048,57654
43024,57607
43032,57575
43026,57622
43037,57637
43045,57622
43026,57639
43028,57631
43028,57647
43029,57643
43052,57619
43052,57635
43044,57629
43032,57623
43010,57626
43058,57659
43004,57625
43015,57621
43021,57635
43025,57636
43017,57616
43023,57625
43024,57606
43020,57613
43013,57602
43012,57628
43024,57622
43006,57618
42999,57623
43021,57618
43028,57626
43000,57629
43029,57628
43015,57624
43021,57631
43015,57622
43008,57615
43002,57618
43012,57620
43008,57626
43005,57631
43012,57635
43000,57619
42997,57644
43006,57633
42996,57628
43009,57633
43009,57623
42993,57619
43005,57632
43013,57615
43013,57621
43004,57630
43001,57628
43016,57633
43000,57627
43005,57630
43011,57629
43008,57628
43007,57631
43012,57625
43020,57640
43011,57646
43012,57624
42995,57644
43008,57658
43007,57638
43011,57644
43009,57641
43005,57641
43005,57641
43005,57659
42990,57649
43023,57655
42993,57650
43005,57651
43006,57646
43004,57645
43007,57644
42999,57657
43009,57637
43025,57644
43015,57674
42986,57668
43015,57649
43008,57666
43014,57666
43014,57658
42995,57662
42999,57674
43010,57659
42997,57680
43014,57662
43007,57667
43012,57665
43009,57664
43020,57685
43006,57682
43009,57687
43006,57677
43017,57690
43017,57668
43007,57677
43016,57695
43009,57679
43002,57683
43009,57687
43019,57697
43008,57690
42999,57684
42999,57683
43002,57673
42993,57649
42985,57640
42983,57619
42987,57612
42986,57593
42986,57593
42989,57575
42987,57579
42985,57587
42986,57571
42969,57567
42975,57574
42962,57585
42966,57560
42962,57580
42964,57590
42969,57578
42962,57576
42966,57548
42952,57558
42945,57551
42952,57542
42968,57530
42967,57528
42951,57511
42957,57514
42942,57516
42934,57507
42939,57517
42939,57518
42939,57504
42942,57514
42936,57504
42943,57512
42946,57511
42932,57503
42938,57509
42919,57506
42933,57485
42949,57483
42928,57489
42929,57492
42915,57490
42920,57480
42924,57472
42925,57482
42920,57476
42920,57459
42909,57469
42921,57465
42909,57472
42905,57467
42919,57465
42902,57466
42895,57458
42898,57462
42900,57455
42903,57465
42909,57460
42917,57459
42913,57466
42915,57455
42908,57458
42898,57468
42886,57453
42902,57446
42905,57452
42901,57452
42906,57449
42894,57454
42895,57451
42905,57461
42888,57456
42901,57444
42889,57437
42913,57459
42888,57454
42907,57465
42905,57446
42895,57461
42905,57451
42893,57456
42914,57463
42902,57451
42899,57457
42892,57462
42890,57478
42903,57460
42894,57465
42899,57473
42892,57467
42903,57473
42900,57478
42894,57462
42902,57458
42895,57460
42898,57467
42906,57473
42892,57461
42902,57488
42911,57493
42902,57489
42914,57488
42903,57482
42902,57496
42912,57476
42911,57492
42913,57486
42899,57487
42910,57493
42908,57476
42907,57488
42916,57508
42905,57508
42911,57490
42915,57501
42906,57501
42911,57508
42917,57523
42907,57502
42918,57504
42907,57509
42921,57500
42884,57517
42919,57504
42913,57518
42914,57521
42925,57508
42911,57511
42911,57513
42922,57521
42919,57532
42918,57521
42892,57532
42934,57518
42919,57538
42911,57551
42922,57539
42913,57447
42886,57442
42884,57437
42879,57421
42880,57411
42888,57406
42877,57404
42865,57386
42898,57385
42887,57398
42892,57401
42883,57402
42858,57390
42907,57502
42881,57401
42874,57391
42882,57378
42875,57370
42865,57382
42869,57352
42850,57366
42878,57361
42852,57352
42856,57339
42860,57346
42851,57338
42870,57343
42855,57341
42861,57333
42855,57328
42871,57336
42858,57345
42857,57336
42858,57335
42862,57352
42855,57333
42859,57341
42858,57322
42853,57344
42846,57323
42863,57324
42855,57303
42845,57306
42849,57306
42845,57314
42834,57293
42844,57310
42839,57298
42842,57311
42833,57297
42852,57291
42846,57295
42856,57309
42858,57313
42840,57309
42853,57300
42850,57307
42850,57299
42841,57308
42845,57301
42847,57308
42851,57313
42856,57297
42843,57311
42840,57301
42849,57291
42847,57305
42838,57295
42839,57309
42847,57311
42835,57309
42836,57305
42852,57297
42851,57300
42854,57293
42843,57303
42857,57298
42854,57308
42857,57296
42843,57309
42853,57287
42859,57305
42849,57308
42842,57320
42826,57308
42850,57301
42844,57309
42843,57317
42848,57307
42846,57330
42872,57325
42845,57320
42862,57321
42834,57319
42855,57333
42850,57317
42846,57310
42852,57317
42866,57312
42860,57327
42859,57326
42867,57332
42866,57336
42859,57326
42864,57332
42851,57327
42867,57324
42868,57327
42861,57336
42870,57340
42868,57332
42860,57343
42862,57332
42849,57337
42875,57336
42872,57355
42880,57346
42867,57334
42871,57351
42865,57339
42869,57334
42856,57323
42868,57294
42832,57282
42847,57257
42851,57229
42842,57239
42827,57221
42838,57209
42826,57191
42827,57185
42824,57190
42833,57198
42814,57188
42832,57188
42829,57201
42831,57180
42844,57185
42813,57192
42816,57180
42816,57166
42822,57175
42814,57165
42825,57168
42814,57147
42812,57134
42818,57139
42813,57119
42803,57135
42810,57114
42813,57113
42809,57125
42814,57102
42819,57107
42810,57127
42810,57108
42806,57107
42810,57114
42787,57126
42808,57104
42826,57108
42796,57103
42795,57104
42808,57100
42806,57085
42804,57095
42794,57088
42797,57089
42814,57072
42805,57073
42802,57078
42798,57087
42809,57080
42797,57071
42805,57082
42813,57059
42804,57070
42794,57076
42804,57084
42813,57089
42810,57081
42806,57074
42796,57074
42809,57075
42818,57083
42810,57078
42823,57088
42815,57056
42809,57078
42802,57069
42810,57078
42818,57081
42812,57075
42805,57068
42826,57070
42828,57078
42807,57077
42814,57067
42813,57068
42799,57070
42807,57081
42811,57079
42810,57081
42815,57079
42812,57088
42814,57060
42820,57081
42820,57090
42824,57081
42825,57081
42823,57086
42812,57086
42825,57093
42827,57078
42813,57090
42831,57082
42837,57074
42822,57088
42829,57082
