40717,52901
40704,52865
40689,52809
40677,52793
40692,52767
40675,52771
40695,52773
40670,52760
40680,52777
40665,52796
40694,52800
40703,52819
40713,52837
40706,52836
40701,52851
40714,52871
40720,52876
40709,52865
40716,52899
40716,52886
40727,52911
40723,52926
40741,52957
40735,52962
40739,52991
40729,52995
40764,53021
40741,53013
40756,53020
40752,53003
40757,53002
40750,53003
40753,52994
40737,52981
40735,52971
40728,52955
40726,52946
40750,52972
40741,52964
40737,52986
40729,52973
40741,52969
40740,52998
40738,52984
40740,52991
40744,53013
40740,52994
40746,53023
40757,53021
40760,53033
40759,53041
40763,53055
40746,53070
40761,53087
40777,53094
40767,53090
40774,53101
40772,53129
40772,53127
40779,53136
40786,53145
40795,53147
40790,53154
40779,53176
40790,53174
40783,53185
40801,53197
40802,53204
40790,53203
40788,53226
40792,53237
40805,53238
40795,53250
40807,53248
40812,53258
40794,53268
40821,53289
40816,53289
40828,53279
40811,53312
40823,53315
40818,53316
40816,53315
40817,53323
40822,53323
40828,53342
40829,53351
40838,53356
40836,53352
40838,53364
40834,53372
40841,53383
40828,53380
40836,53395
40839,53408
40844,53411
40848,53423
40843,53417
40852,53429
40850,53448
40851,53459
40844,53453
40859,53439
40839,53379
40795,53275
40742,53130
40695,52994
40682,52873
40654,52760
40627,52683
40613,52655
40587,52594
40599,52582
40606,52565
40595,52559
40595,52598
40596,52597
40597,52596
40613,52616
40600,52634
40624,52651
40633,52609
40636,52665
40620,52682
40636,52681
40634,52691
40654,52698
40646,52717
40644,52733
40642,52744
40668,52772
40673,52783
40677,52802
40679,52834
40684,52845
40680,52865
40680,52850
40665,52804
40664,52785
40659,52789
40664,52782
40660,52768
40646,52762
40654,52756
40657,52755
40666,52760
40664,52758
40682,52760
40677,52769
40668,52776
40663,52790
40600,52634
40654,52808
40681,52826
40679,52815
40675,52835
40667,52847
40688,52855
40683,52865
40686,52878
40683,52880
40693,52894
40686,52909
40700,52920
40693,52922
40709,52927
40709,52931
40702,52952
40722,52947
40708,52960
40706,52977
40709,52977
40713,52988
40724,53000
40719,52997
40724,53008
40724,53028
40728,53019
40720,53038
40734,53049
40729,53045
40736,53050
40751,53081
40737,53070
40749,53065
40752,53086
40749,53095
40738,53096
40755,53102
40750,53123
40756,53124
40762,53134
40765,53154
40746,53163
40760,53175
40781,53181
40768,53186
40765,53189
40772,53226
40779,53219
40780,53217
40765,53184
40761,53121
40694,53031
40689,52906
40631,52763
40594,52646
40592,52571
40570,52513
40545,52457
40540,52416
40548,52395
40540,52394
40530,52396
40544,52389
40540,52382
40550,52401
40544,52406
40553,52432
40567,52462
40559,52466
40575,52486
40571,52488
40571,52490
40573,52496
40567,52524
40595,52536
40579,52556
40599,52575
40598,52588
40611,52608
40613,52637
40612,52645
40628,52661
40626,52653
40615,52670
40597,52664
40619,52658
40610,52640
40606,52619
40589,52615
40606,52580
40593,52589
40602,52585
40591,52576
40601,52567
40596,52568
40600,52604
40594,52596
40603,52607
40601,52623
40591,52619
40616,52640
40614,52646
40623,52650
40623,52660
40617,52685
40632,52695
40637,52703
40645,52711
40634,52737
40631,52751
40658,52757
40649,52769
40653,52776
40644,52789
40659,52796
40650,52809
40673,52809
40668,52818
40666,52817
40663,52845
40673,52853
40681,52865
40676,52866
40681,52875
40688,52875
40684,52898
40689,52896
40688,52913
40691,52930
40682,52931
40684,52942
40692,52950
40687,52964
40696,52953
40700,52973
40715,52969
40704,52981
40694,52992
40724,52992
40716,52995
40720,53014
40714,53039
40721,53036
40734,53038
40721,53050
40738,53076
40731,53098
40726,53097
40738,53119
40749,53123
40745,53102
40743,53116
40729,53079
40715,53015
40661,52908
40630,52761
40589,52594
40545,52495
40530,52406
40520,52343
40506,52295
40488,52265
40495,52247
40475,52231
40479,52232
40480,52241
40478,52239
40491,52242
40482,52254
40486,52269
40501,52287
40489,52287
40498,52315
40497,52302
40510,52327
40500,52319
40507,52333
40515,52350
40526,52370
40517,52375
40533,52389
40531,52414
40545,52448
40543,52457
40549,52467
40553,52464
40559,52469
40550,52481
40564,52452
40543,52460
40550,52446
40542,52422
40548,52431
40539,52422
40529,52407
40535,52411
40527,52397
40539,52404
40544,52407
40536,52415
40532,52415
40541,52435
40547,52423
40550,52433
40549,52462
40555,52466
40553,52480
40561,52493
40570,52493
40565,52518
40574,52533
40584,52547
40573,52549
40578,52552
40590,52538
40598,52591
40598,52601
40602,52606
40608,52617
40611,52627
40605,52644
40622,52658
40608,52669
40627,52664
40648,52674
40615,52672
40616,52699
40626,52713
40629,52704
40624,52762
40634,52758
40638,52748
40647,52731
40653,52757
40634,52760
40643,52788
40649,52790
40650,52801
40658,52829
40671,52841
40666,52841
40684,52839
40696,52849
40679,52867
40655,52873
40578,52552
40678,52899
40677,52901
40680,52896
40679,52878
40665,52849
40644,52784
40618,52674
40575,52533
40532,52419
40513,52315
40476,52246
40470,52200
40476,52145
40452,52121
40450,52111
40462,52104
40452,52105
40446,52135
40459,52143
40466,52126
40481,52164
40496,52188
40472,52202
40483,52200
40492,52225
40504,52238
40506,52235
40495,52249
40507,52265
40515,52272
40517,52321
40530,52330
40540,52351
40524,52361
40540,52377
40546,52389
40528,52355
40543,52381
40543,52348
40542,52356
40522,52327
40514,52324
40512,52302
40522,52298
40499,52267
40516,52261
40522,52282
40507,52284
40518,52294
40520,52293
40520,52308
40524,52314
40542,52319
40513,52330
40539,52338
40538,52362
40549,52369
40548,52381
40555,52396
40559,52400
40560,52405
40571,52427
40575,52445
40584,52446
40577,52462
40582,52478
40567,52477
40590,52507
40613,52504
40608,52515
40610,52514
40588,52528
40600,52524
40606,52550
40592,52561
40612,52556
40612,52560
40601,52599
40625,52626
40619,52612
40617,52633
40629,52633
40637,52668
40649,52666
40639,52693
40661,52699
40664,52712
40652,52732
40663,52745
40681,52724
40664,52726
40656,52682
40623,52602
40587,52492
40547,52350
40502,52226
40489,52137
40467,52079
40440,52017
40441,51968
40434,51932
40423,51910
40423,51910
40425,51896
40412,51904
40432,51894
40432,51901
40435,51902
40452,51912
40419,51947
40444,51929
40451,51963
40446,51963
40460,51975
40459,51992
40453,52004
40470,51990
40474,52023
40473,52050
40499,52075
40498,52096
40515,52121
40516,52125
40514,52124
40512,52125
40510,52131
40512,52121
40513,52115
40514,52105
40511,52090
40513,52079
40496,52084
40500,52071
40522,52068
40503,52054
40500,52075
40497,52083
40508,52081
40512,52099
40519,52091
40519,52104
40520,52118
40521,52120
40533,52141
40534,52156
40548,52154
40549,52179
40543,52186
40570,52207
40564,52215
40570,52233
40581,52238
40575,52278
40589,52267
40583,52306
40590,52307
40606,52321
40592,52315
40602,52330
40606,52323
40627,52329
40622,52361
40608,52380
40632,52377
40618,52396
40622,52406
40628,52405
40642,52414
40635,52438
40641,52453
40640,52452
40648,52469
40654,52487
40664,52503
40667,52516
40673,52544
40679,52550
40673,52529
40677,52505
40638,52448
40610,52353
40570,52210
40538,52075
40513,51986
40497,51917
40460,51842
40467,51796
40448,51753
40450,51753
40434,51736
40443,51737
40446,51734
40456,51748
40452,51744
40466,51762
40466,51753
40466,51774
40463,51790
40489,51779
40480,51799
40469,51787
40491,51813
40498,51819
40494,51837
40492,51846
40516,51856
40517,51886
40508,51911
40534,51934
40544,51955
40549,51962
40545,51990
40551,51978
40546,51997
40551,51956
40545,51958
40543,51942
40556,51970
40553,51941
40538,51946
40531,51918
40549,51947
40558,51943
40544,51935
40558,51942
40554,51973
40565,51978
40565,51993
40551,52003
40568,52021
40594,52020
40581,52049
40602,52084
40592,52051
40624,52072
40618,52110
40639,52122
40642,52140
40630,52129
40645,52146
40622,52175
40637,52177
40650,52185
40689,52202
40675,52208
40657,52212
40629,52226
40669,52245
40678,52262
40680,52272
40693,52267
40697,52314
40705,52313
40697,52330
40695,52359
40723,52366
40715,52380
40719,52382
40721,52386
40710,52405
40694,52348
40678,52274
40652,52171
40605,52068
40593,51960
40570,51884
40556,51849
40553,51812
40546,51781
40544,51780
40542,51775
40535,51778
40547,51785
40549,51765
40555,51797
40557,51808
40569,51826
40579,51834
40574,51849
40573,51855
40590,51876
40598,51873
40591,51888
40614,51902
40597,51920
40614,51932
40619,51968
40623,51984
40634,52004
40665,52033
40653,52059
40658,52060
40656,52057
40651,52052
40657,52055
40660,52040
40660,52037
40652,52042
40657,52031
40660,52021
40645,52010
40661,52008
40655,52030
40676,52009
40650,52043
40669,52028
40661,52054
40677,52046
40669,52060
40683,52090
40690,52094
40686,52097
40709,52104
40701,52128
40705,52147
40712,52154
40704,52161
40720,52186
40723,52190
40731,52184
40734,52207
40739,52226
40749,52221
40740,52240
40753,52249
40758,52251
40748,52277
40752,52289
40776,52276
40761,52307
40771,52337
40776,52326
40782,52339
40784,52342
40797,52379
40807,52376
40793,52402
40812,52404
40814,52421
40804,52409
40785,52404
40784,52357
40773,52288
40734,52169
40711,52099
40684,52037
40688,51971
40665,51919
40646,51901
40654,51868
40657,51883
40645,51879
40659,51899
40665,51901
40664,51924
40686,51932
40677,51933
40691,51958
40691,51963
40691,51982
40691,51993
40706,52001
40697,52020
40700,52030
40711,52043
40712,52045
40725,52082
40730,52104
40738,52129
40753,52147
40762,52167
40748,52189
40755,52178
40757,52167
40751,52171
40769,52162
40755,52136
40751,52122
40744,52131
40744,52112
40758,52116
40739,52120
40747,52130
40755,52129
40755,52130
40751,52136
40763,52159
40768,52157
40778,52167
40771,52177
40773,52205
40768,52212
40786,52222
40782,52229
40790,52237
40796,52257
40790,52261
40809,52271
40808,52304
40816,52297
40829,52324
40819,52323
40829,52325
40834,52345
40831,52345
40831,52339
40835,52371
40839,52385
40834,52376
40863,52387
40854,52398
40840,52414
40868,52425
40872,52428
40874,52452
40887,52449
40868,52457
40888,52483
40872,52494
40883,52506
40887,52505
40904,52522
40898,52525
40901,52544
40896,52545
40918,52570
40930,52584
40915,52585
40912,52606
40925,52622
40909,52614
40924,52619
40936,52621
40943,52647
40939,52645
40938,52660
40939,52669
40948,52679
40950,52688
40961,52704
40953,52708
40964,52716
40964,52724
40961,52738
40973,52749
40975,52765
40981,52756
40970,52790
40992,52784
40993,52796
40993,52811
40978,52823
40992,52825
41006,52828
40985,52850
41013,52851
40996,52860
41009,52890
41018,52887
41022,52894
41026,52909
41036,52912
41035,52929
41037,52908
41044,52961
41032,52975
41042,52991
41041,52994
41046,52974
41032,52943
41006,52857
40961,52734
40914,52571
40898,52434
40842,52326
40825,52279
40809,52234
40807,52224
40802,52165
40804,52161
40819,52156
40815,52184
40834,52226
40836,52251
40846,52249
40854,52268
40849,52290
40869,52298
40877,52317
40897,52310
40878,52330
40846,52333
40864,52327
40865,52354
40871,52359
40882,52374
40902,52391
40892,52408
40905,52427
40920,52450
40910,52440
40885,52457
40908,52468
40901,52452
40906,52438
40892,52430
40908,52434
40892,52415
40884,52410
40886,52408
40893,52410
40879,52409
40880,52413
40899,52422
40883,52437
40896,52440
40905,52439
40906,52446
40904,52467
40903,52454
40901,52468
40911,52483
40903,52499
40917,52501
40909,52509
40918,52528
40926,52518
40920,52563
40926,52555
40936,52572
40937,52575
40923,52587
40924,52587
40948,52599
40946,52608
40968,52624
40966,52629
40955,52643
40945,52642
40958,52646
40961,52642
40954,52658
40968,52666
40979,52677
40962,52683
40970,52690
40979,52710
40977,52723
40986,52727
40974,52735
40997,52766
40983,52764
40975,52760
40995,52764
40993,52779
41000,52790
41003,52819
40985,52815
40995,52832
41001,52837
41017,52829
41005,52859
41017,52860
41015,52873
41017,52876
41022,52872
41026,52903
41029,52899
41018,52904
41034,52928
41024,52942
41035,52934
41033,52956
41027,52941
41042,52962
41041,52957
41035,52974
41033,52979
41053,52979
41054,52996
41042,53004
41062,53007
41053,53013
41063,53029
41064,53041
41081,53056
41077,53061
41089,53089
41079,53095
41070,53101
41086,53083
41057,53074
41062,53049
41037,52971
40997,52843
40955,52702
40908,52570
40886,52488
40878,52446
40848,52399
40845,52360
40859,52346
40849,52346
40847,52338
40868,52372
40859,52378
40868,52397
40871,52428
40891,52433
40900,52456
40902,52473
40905,52480
40909,52513
40912,52508
40918,52520
40921,52517
40926,52545
40930,52560
40930,52577
40933,52570
40941,52612
40948,52620
40954,52649
40958,52659
40964,52673
40968,52646
40956,52643
40944,52635
40956,52628
40936,52609
40927,52601
40920,52575
40920,52572
40917,52582
40928,52578
40927,52573
40934,52584
40911,52595
40919,52603
40923,52604
40922,52634
40941,52619
40945,52637
40935,52639
40953,52647
40938,52648
40955,52674
40951,52690
40953,52712
40951,52700
40971,52706
40959,52711
40952,52718
40959,52723
40958,52730
40967,52747
40970,52747
40970,52759
40972,52752
40963,52772
40975,52778
40988,52791
40968,52796
40978,52795
40982,52803
40977,52803
40982,52818
40991,52826
40994,52847
40995,52847
41002,52858
41000,52865
41001,52876
41015,52883
41008,52887
41015,52892
41015,52916
41010,52916
41021,52908
41003,52929
41028,52938
41022,52941
41009,52946
41020,52961
41034,52961
41015,52970
41029,52974
41028,52985
41031,52982
41023,53006
41045,53013
41044,53025
41043,53013
41050,53028
41049,53064
41046,53057
41060,53058
41057,53078
41056,53087
41054,53088
41054,53081
41037,53058
41020,52993
40990,52900
40942,52763
40911,52648
40894,52553
40860,52480
40864,52394
40839,52410
40834,52377
40839,52373
40824,52364
40829,52375
40829,52376
40854,52405
40840,52405
40852,52414
40887,52434
40882,52471
40871,52463
40891,52480
40893,52495
40886,52522
40895,52511
40892,52510
40896,52533
40904,52563
40908,52582
40916,52608
40923,52620
40925,52650
40927,52652
40915,52648
40959,52633
40949,52625
40931,52623
40892,52605
40894,52553
40894,52586
40899,52577
40897,52565
40901,52573
40903,52564
40909,52552
40912,52580
40901,52575
40909,52577
40902,52600
40898,52603
40908,52607
40911,52622
40924,52643
40917,52629
40914,52666
40926,52665
40921,52681
40931,52684
40920,52703
40934,52699
40925,52716
40931,52725
40930,52734
40936,52743
40948,52744
40957,52741
40947,52754
40947,52763
40957,52771
40962,52795
40961,52792
40942,52799
40961,52793
40956,52808
40968,52827
40961,52822
40958,52837
40974,52833
40972,52853
40979,52862
40970,52868
40975,52883
40989,52889
40976,52896
40990,52901
40993,52921
40994,52936
40992,52928
40991,52948
41005,52955
41003,52962
41003,52961
41005,52971
40993,52985
40994,52992
41023,53005
40999,53001
41019,53009
41013,53021
41036,53014
41028,53016
41027,53026
41018,53047
41029,53041
41033,53068
41032,53049
41028,53088
41029,53111
41057,53111
41048,53112
41047,53127
41052,53144
41045,53129
41030,53097
41005,53035
40975,52918
40922,52779
40876,52639
40858,52520
40831,52453
40816,52401
40810,52362
40798,52327
40795,52327
40810,52300
40810,52314
40799,52328
40818,52328
40830,52350
40809,52362
40827,52384
40831,52399
40817,52411
40854,52420
40858,52439
40850,52446
40849,52453
40832,52465
40844,52472
40849,52479
40848,52471
40861,52506
40856,52522
40879,52536
40875,52561
40872,52574
40876,52576
40884,52558
40871,52572
40892,52559
40867,52554
40866,52526
40862,52522
40865,52526
40861,52509
40864,52511
40858,52509
40850,52502
40853,52502
40859,52506
40866,52509
40870,52532
40854,52540
40865,52542
40867,52557
40864,52569
40892,52566
40885,52585
40896,52588
40874,52596
40881,52597
40898,52623
40895,52630
40898,52636
40898,52658
40904,52671
40905,52664
40907,52681
40912,52685
40903,52684
40899,52722
40902,52703
40914,52716
40918,52736
40924,52743
40924,52755
40926,52757
40922,52781
40944,52764
40942,52770
40930,52797
40946,52822
40941,52804
40955,52826
40933,52834
40946,52839
40948,52836
40959,52859
40970,52872
40950,52882
40968,52882
40957,52886
40986,52910
40963,52914
40974,52931
40964,52945
40977,52943
40959,52940
40983,52959
40982,52953
40979,52974
40991,52966
40990,52986
40999,53003
41001,53007
40985,53030
40996,53015
40979,53014
40985,53012
40989,53045
41017,53057
41002,53053
41008,53094
41025,53069
41009,53096
41016,53099
41015,53111
41027,53117
41030,53136
41016,53155
41031,53155
41006,53128
41015,53100
40977,53022
40949,52901
40891,52763
40849,52614
40821,52513
40813,52429
40784,52373
40775,52326
40776,52319
40777,52302
40779,52313
40797,52316
40789,52336
40781,52337
40810,52378
40804,52376
40824,52413
40823,52430
40831,52444
40841,52469
40827,52490
40843,52492
40853,52503
40845,52529
40861,52541
40865,52551
40865,52577
40875,52588
40875,52618
40881,52622
40890,52656
40884,52670
40895,52648
40894,52628
40888,52609
40849,52614
40859,52593
40852,52582
40855,52562
40849,52533
40851,52488
40846,52485
40835,52509
40851,52525
40839,52532
40844,52543
40848,52540
40854,52551
40868,52577
40872,52594
40883,52605
40874,52602
40847,52611
40844,52634
40891,52657
40880,52661
40890,52664
40873,52683
40883,52685
40891,52696
40894,52705
40891,52713
40885,52706
40897,52742
40905,52740
40909,52758
40905,52761
40907,52759
40912,52742
40924,52779
40903,52786
40913,52784
40918,52798
40931,52814
40933,52825
40919,52840
40943,52853
40930,52853
40938,52875
40945,52870
40947,52876
40947,52882
40952,52900
40952,52912
40965,52903
40972,52926
40929,52929
40955,52935
40951,52941
40963,52955
40945,52960
40962,52958
40966,52954
40960,52985
40974,52997
40966,53001
40972,52995
40986,53009
40982,53023
40985,53037
40987,53056
40996,53064
40994,53069
40993,53073
40980,53053
40969,52990
40938,52895
40916,52773
40844,52625
40819,52500
40785,52411
40764,52333
40749,52287
40744,52250
40740,52222
40752,52225
40728,52224
40753,52229
40753,52243
40757,52240
40773,52248
40768,52293
40769,52305
40785,52317
40785,52330
40793,52356
40798,52357
40805,52386
40779,52380
40789,52400
40807,52415
40819,52417
40822,52440
40819,52464
40842,52481
40843,52509
40840,52526
40857,52532
40830,52525
40840,52513
40816,52506
40840,52492
40818,52487
40815,52461
40815,52456
40823,52441
40826,52453
40814,52439
40820,52420
40813,52435
40805,52437
40833,52454
40810,52454
40821,52472
40828,52487
40825,52509
40850,52531
40837,52519
40839,52533
40849,52545
40860,52565
40847,52563
40854,52573
40853,52583
40857,52605
40870,52641
40883,52641
40874,52651
40881,52661
40876,52657
40900,52675
40881,52675
40906,52704
40887,52704
40897,52720
40899,52720
40889,52723
40913,52748
40916,52741
40913,52766
40898,52767
40914,52769
40914,52794
40910,52805
40922,52806
40917,52805
40934,52815
40938,52840
40939,52848
40932,52867
40941,52855
40947,52866
40937,52890
40950,52905
40956,52904
40953,52916
40966,52928
40964,52928
40956,52935
40950,52926
40971,52950
40956,52957
40972,52949
40971,52965
40974,52977
40971,52977
40995,52998
40985,53006
40982,53012
40980,53028
40988,53044
40994,53052
40990,53045
41000,53063
41004,53031
40958,52989
40946,52882
40889,52736
40839,52566
40792,52441
40776,52327
40756,52265
40743,52216
40729,52194
40713,52152
40728,52157
40739,52154
40731,52150
40746,52170
40759,52194
40764,52214
40768,52205
40755,52230
40770,52244
40791,52274
40794,52286
40778,52296
40798,52306
40801,52321
40795,52321
40801,52333
40813,52354
40818,52348
40821,52386
40839,52403
40846,52448
40844,52438
40846,52448
40851,52455
40829,52455
40832,52447
40835,52436
40832,52427
40821,52420
40820,52392
40823,52387
40818,52377
40809,52378
40820,52392
40836,52381
40828,52395
40844,52401
40839,52405
40833,52425
40834,52442
40842,52452
40830,52454
40859,52464
40852,52470
40865,52493
40848,52509
40861,52510
40880,52549
40876,52565
40876,52575
40891,52566
40896,52590
40907,52604
40901,52606
40899,52614
40912,52634
40907,52666
40900,52656
40913,52661
40918,52675
40928,52699
40926,52731
40936,52711
40928,52693
40950,52746
40941,52728
40942,52767
40946,52767
40967,52771
40938,52788
40956,52799
40971,52822
40965,52819
40997,52828
40972,52835
40945,52839
40943,52857
40954,52851
40951,52861
40976,52883
40978,52876
40982,52896
40983,52918
40985,52923
41000,52923
40989,52940
40999,52935
41004,52939
41010,52961
41007,52967
41010,52973
41012,52991
41027,52993
41011,52999
41020,52995
41029,53016
41037,53043
41027,53032
41034,53063
41033,53064
41042,53080
41048,53089
41042,53096
41037,53082
41042,53058
41017,53007
40993,52898
40943,52750
40892,52576
40856,52441
40805,52347
40816,52278
40806,52225
40784,52195
40766,52184
40787,52185
40795,52183
40800,52189
40805,52210
40804,52241
40821,52259
40835,52284
40852,52311
40853,52343
40861,52372
40884,52385
40875,52395
40881,52416
40881,52439
40892,52427
40884,52478
40902,52485
40907,52510
40924,52527
40935,52564
40910,52582
40938,52577
40928,52579
40909,52571
40921,52568
40926,52549
40903,52546
40905,52522
40890,52485
40889,52477
40906,52468
40900,52460
40885,52471
40888,52456
40909,52463
40913,52483
40913,52495
40913,52491
40920,52517
40930,52512
40920,52539
40935,52557
40927,52569
40939,52581
40960,52599
40959,52622
40957,52639
40965,52641
40975,52647
40968,52666
40982,52667
40974,52691
40984,52698
40982,52711
40991,52725
41001,52739
40995,52749
41001,52755
40998,52778
41010,52785
41009,52790
41010,52778
41025,52796
41019,52834
41026,52827
41030,52847
41041,52856
41034,52864
41034,52889
41029,52896
41037,52892
41041,52900
41052,52902
41058,52924
41050,52947
41063,52943
41065,52950
41076,52959
41074,52980
41061,52980
41078,52973
41075,52981
41072,52994
41073,53005
41067,53019
41074,53015
41088,53020
41086,53037
41091,53039
41077,53069
41104,53065
41096,53067
41084,53091
41103,53084
41116,53110
41111,53114
41111,53121
41099,53089
41078,53036
41042,52917
40992,52770
40959,52627
40915,52484
40875,52368
40858,52313
40831,52263
40841,52211
40848,52192
40836,52170
40842,52190
40845,52187
40853,52212
40858,52236
40867,52248
40867,52268
40891,52286
40893,52303
40901,52332
40894,52349
40909,52354
40906,52386
40915,52385
40924,52396
40940,52412
40930,52430
40953,52456
40958,52478
40956,52495
40970,52513
40973,52530
40963,52540
40964,52546
40978,52541
40956,52525
40963,52519
40963,52496
40949,52474
40963,52478
40960,52468
40942,52464
40942,52463
40952,52462
40941,52457
40951,52465
40961,52465
40957,52502
40967,52515
40960,52518
40979,52537
40984,52552
40986,52558
40984,52585
40993,52578
40995,52610
41004,52616
41004,52638
41010,52652
41013,52664
41030,52677
41027,52685
41016,52717
41037,52716
41035,52728
41027,52737
41033,52752
41055,52761
41059,52768
41061,52779
41068,52791
41054,52813
41052,52818
41067,52812
41063,52825
41078,52837
41081,52856
41072,52883
41079,52863
41080,52876
41087,52889
41092,52917
41088,52884
41095,52931
41109,52928
41107,52952
41115,52952
41111,52956
41111,52971
41109,52981
41108,52976
41114,52992
41121,53005
41138,53001
41120,53013
41129,53037
41141,53043
41144,53026
41144,53014
41153,53038
41149,53072
41162,53078
41154,53095
41161,53096
41165,53121
41158,53131
41165,53141
41198,53134
41181,53138
41168,53083
41104,53005
41056,52840
41014,52693
40960,52539
40958,52418
40921,52314
40907,52270
40890,52216
40891,52202
40886,52194
40890,52190
40889,52195
40895,52190
40908,52233
40914,52249
40929,52277
40918,52293
40937,52333
40946,52332
40951,52349
40975,52356
40953,52386
40968,52398
40976,52401
40984,52416
40990,52428
40992,52464
40994,52478
40994,52505
41016,52550
41013,52536
41031,52543
41030,52552
41027,52555
41014,52542
41018,52535
41022,52526
41026,52516
41015,52494
41012,52480
41006,52475
40999,52474
41008,52473
41003,52477
41011,52479
41013,52500
41008,52502
41010,52523
41035,52530
41026,52552
41039,52550
41041,52569
41041,52581
41039,52598
41056,52619
41061,52630
41071,52635
41068,52660
41068,52668
41078,52683
41074,52703
41087,52712
41098,52720
41097,52726
41095,52748
41100,52767
41118,52777
41086,52789
41112,52795
41106,52808
41108,52810
41117,52822
41123,52849
41119,52846
41138,52861
41140,52863
41143,52875
41137,52897
41131,52887
41160,52917
41165,52911
41157,52933
41151,52927
41157,52946
41163,52944
41163,52963
41175,52972
41159,52990
41166,52993
41172,52994
41171,53027
41190,53037
41190,53020
41186,53023
41196,53037
41201,53049
41188,53071
41193,53078
41201,53078
41206,53078
41212,53095
41210,53099
41202,53114
41201,53114
41218,53117
41222,53134
41204,53143
41227,53154
41234,53171
41233,53199
41226,53186
41229,53191
41218,53188
41205,53135
41178,53067
41143,52930
41095,52757
41058,52625
41022,52487
40982,52401
40980,52344
40974,52318
40962,52283
40966,52268
40969,52263
40966,52292
40979,52299
40991,52336
40988,52348
41017,52385
41029,52403
41030,52417
41037,52449
41033,52474
41071,52504
41048,52527
41069,52513
41067,52552
41083,52565
41090,52588
41094,52607
41094,52615
41097,52672
41113,52686
41123,52691
41110,52705
41101,52694
41113,52677
41099,52673
41088,52667
41092,52634
41100,52622
41093,52605
41080,52586
41068,52574
41087,52592
41093,52577
41085,52589
41078,52589
41085,52596
41089,52628
41110,52621
41105,52647
41114,52657
41117,52672
41124,52680
41116,52713
41124,52725
41133,52745
41152,52751
41142,52766
41140,52774
41155,52782
41145,52801
41152,52823
41173,52825
41172,52825
41163,52851
41180,52847
41174,52855
41198,52875
41168,52878
41190,52894
41188,52903
41196,52904
41196,52939
41204,52942
41212,52954
41200,52951
41217,52968
41205,52986
41228,52976
41221,52985
41228,53005
41231,53014
41218,53015
41232,53038
41238,53037
41239,53056
41227,53056
41228,53068
41237,53070
41228,53090
41236,53091
41241,53090
41247,53105
41256,53098
41241,53115
41240,53127
41249,53141
41247,53117
41250,53156
41272,53152
41266,53156
41280,53177
41274,53186
41264,53208
41270,53191
41274,53221
41281,53220
41271,53199
41247,53145
41215,53037
41160,52907
41129,52733
41072,52601
41044,52475
41061,52398
41017,52341
41010,52299
40989,52292
40992,52284
41013,52314
41017,52303
41019,52286
41038,52328
41043,52363
41037,52396
41042,52408
41060,52417
41060,52440
41068,52451
41074,52474
41110,52491
41098,52497
41116,52493
41092,52516
41059,52526
41264,53208
41101,52576
41119,52592
41106,52617
41128,52610
41112,52632
41115,52617
41121,52629
41125,52609
41111,52596
41121,52570
41117,52566
41113,52553
41104,52548
41107,52550
41099,52551
41109,52537
41098,52562
41114,52574
41111,52594
41113,52595
41130,52597
41149,52634
41124,52629
41132,52651
41156,52661
41138,52677
41163,52679
41161,52701
41170,52707
41160,52714
41151,52742
41166,52758
41174,52784
41175,52790
41191,52804
41209,52800
41204,52838
41187,52834
41197,52841
41197,52848
41205,52871
41204,52856
41221,52880
41206,52890
41224,52909
41225,52900
41231,52929
41238,52945
41213,52942
41235,52957
41232,52955
41242,52986
41236,52992
41238,53013
41245,52994
41253,53012
41254,53017
41262,53024
41249,53039
41256,53041
41251,53060
41246,53063
41277,53075
41276,53078
41268,53093
41264,53074
41279,53098
41291,53099
41290,53123
41289,53114
41293,53133
41290,53126
41285,53135
41287,53157
41296,53177
41304,53168
41294,53184
41288,53182
41311,53219
41321,53220
41304,53238
41305,53239
41314,53242
41304,53222
41300,53214
41271,53136
41246,53022
41186,52876
41152,52718
41120,52571
41074,52467
41069,52381
41025,52333
41037,52305
41023,52296
41015,52293
41030,52281
41029,52278
41048,52309
41050,52341
41070,52365
41074,52380
41087,52403
41096,52409
41081,52429
41101,52439
41103,52453
41103,52469
41100,52497
41107,52478
41108,52500
41122,52516
41129,52535
41139,52555
41150,52587
41155,52605
41140,52625
41152,52633
41155,52625
41161,52626
41151,52613
41149,52612
41155,52590
41146,52584
41124,52576
41139,52564
41148,52562
41133,52561
41115,52550
41143,52548
41145,52560
41133,52587
41156,52582
41168,52599
41157,52610
41176,52619
41161,52630
41167,52638
41179,52651
41182,52673
41179,52691
41192,52704
41194,52718
41198,52725
41204,52758
41201,52773
41211,52778
41208,52793
41220,52801
41226,52804
41227,52824
41226,52841
41221,52851
41218,52844
41232,52863
41236,52879
41246,52873
41240,52890
41246,52910
41254,52916
41247,52929
41256,52931
41250,52934
41251,52947
41275,52951
41263,52977
41257,52990
41256,52973
41264,52993
41276,52998
41278,53023
41281,53032
41283,53041
41280,53047
41292,53048
41295,53063
41286,53069
41301,53077
41299,53094
41298,53082
41294,53083
41314,53102
41307,53117
41317,53125
41306,53137
41310,53124
41308,53150
41310,53158
41318,53177
41325,53168
41320,53181
41333,53190
41331,53201
41323,53213
41319,53228
41326,53224
41340,53217
41337,53210
41319,53183
41295,53135
41271,53013
41210,52851
41168,52734
41140,52611
41100,52491
41092,52421
41075,52379
41074,52322
41047,52311
41068,52321
41077,52321
41065,52335
41083,52368
41086,52416
41093,52409
41118,52442
41124,52464
41123,52487
41129,52501
41141,52535
41152,52549
41165,52558
41162,52582
41153,52588
41160,52606
41176,52635
41191,52656
41200,52672
41340,53217
41210,52729
41214,52753
41204,52718
41203,52725
41194,52656
41187,52636
41180,52654
41184,52625
41178,52629
41167,52624
41177,52595
41171,52609
41192,52621
41180,52630
41213,52630
41184,52649
41156,52657
41181,52677
41202,52692
41190,52696
41220,52713
41232,52727
41210,52745
41216,52755
41228,52766
41229,52777
41221,52797
41247,52815
41231,52827
41242,52834
41249,52844
41253,52858
41262,52874
41260,52879
41257,52893
41270,52915
41270,52906
41271,52915
41270,52936
41281,52943
41264,52951
41274,52968
41285,52970
41292,52987
41286,52989
41284,52992
41298,53007
41309,53024
41295,53040
41298,53036
41313,53046
41308,53058
41312,53078
41318,53072
41324,53081
41309,53084
41324,53096
41316,53095
41319,53115
41330,53131
41340,53117
41316,53129
41331,53149
41338,53140
41340,53164
41330,53157
41345,53176
41333,53184
41331,53218
41344,53199
41335,53221
41360,53229
41357,53231
41357,53243
41347,53221
41343,53193
41309,53131
41279,53017
41223,52857
41204,52715
41145,52582
41135,52479
41100,52395
41089,52352
41083,52322
41063,52306
41080,52304
41068,52291
41066,52313
41070,52333
41094,52357
41104,52351
41108,52386
41117,52402
41124,52430
41127,52427
41134,52455
41143,52460
41150,52474
41153,52475
41146,52476
41152,52498
41145,52510
41173,52525
41170,52544
41184,52583
41186,52608
41196,52615
41198,52641
41191,52623
41195,52611
41195,52620
41175,52603
41194,52605
41175,52581
41170,52573
41151,52564
41168,52555
41175,52556
41178,52556
41177,52547
41166,52572
41185,52593
41191,52593
41180,52605
41201,52609
41203,52647
41199,52648
41227,52650
41222,52663
41227,52682
41216,52700
41225,52696
41234,52721
41234,52738
41215,52741
41224,52766
41248,52775
41252,52793
41264,52793
41239,52811
41256,52825
41265,52831
41265,52840
41271,52853
41268,52855
41289,52873
41277,52885
41268,52890
41278,52917
41289,52921
41284,52929
41280,52941
41285,52950
41281,52966
41300,52976
41303,52977
41310,52986
41318,53006
41322,53000
41303,53027
41309,53038
41314,53041
41320,53039
41328,53054
41321,53053
41327,53067
41336,53089
41329,53091
41323,53107
41335,53101
41334,53118
41336,53123
41340,53142
41345,53151
41340,53153
41346,53157
41350,53171
41353,53184
41364,53169
41357,53168
41385,53188
41362,53184
41376,53200
41357,53221
41351,53236
41370,53237
41371,53236
41394,53248
41377,53265
41383,53295
41392,53300
41397,53295
41389,53305
41381,53258
41361,53222
41323,53095
41269,52927
41224,52783
41188,52646
41151,52531
41130,52453
41106,52397
41096,52361
41106,52314
41088,52332
41108,52332
41110,52357
41111,52386
41113,52383
41149,52422
41137,52433
41149,52458
41161,52476
41160,52480
41172,52520
41171,52525
41182,52534
41191,52556
41189,52551
41196,52561
41199,52585
41194,52606
41201,52637
41214,52634
41227,52669
41229,52691
41233,52688
41241,52703
41220,52711
41232,52687
41223,52679
41213,52669
41219,52669
41212,52633
41206,52633
41202,52615
41206,52637
41210,52609
41203,52613
41223,52631
41215,52630
41225,52652
41241,52661
41191,52682
41236,52683
41237,52722
41241,52742
41251,52750
41251,52744
41256,52767
41271,52781
41265,52801
41273,52810
41283,52827
41279,52852
41296,52858
41293,52852
41293,52874
41316,52895
41280,52897
41261,52906
41232,52687
41302,52938
41304,52943
41321,52954
41303,52952
41323,52970
41323,52977
41326,52987
41321,53000
41327,53009
41340,53022
41330,53037
41325,53038
41334,53043
41341,53060
41337,53067
41350,53079
41341,53073
41336,53100
41349,53081
41354,53110
41350,53131
41349,53110
41368,53116
41371,53119
41359,53143
41359,53148
41365,53145
41369,53157
41357,53167
41368,53158
41364,53191
41361,53192
41361,53194
41383,53205
41385,53231
41383,53221
41380,53242
41378,53239
41392,53251
41411,53252
41399,53271
41387,53286
41394,53290
41402,53304
41409,53295
41393,53311
41411,53329
41388,53293
41363,53248
41352,53179
41308,53052
41261,52888
41247,52758
41199,52643
41158,52540
41157,52491
41156,52446
41141,52441
41155,52426
41154,52433
41150,52461
41167,52473
41151,52500
41195,52513
41187,52544
41191,52580
41207,52610
41208,52637
41227,52653
41241,52674
41238,52693
41252,52706
41241,52730
41265,52750
41268,52769
41268,52784
41279,52832
41283,52841
41293,52877
41298,52872
41302,52875
41292,52866
41286,52865
41287,52849
41291,52851
41275,52817
41267,52820
41266,52789
41257,52785
41255,52779
41245,52768
41261,52766
41271,52788
41257,52778
41278,52794
41279,52812
41289,52833
41283,52832
41302,52845
41285,52883
41297,52872
41289,52883
41293,52913
41310,52934
41323,52944
41325,52958
41314,52968
41333,52989
41329,52998
41330,53018
41329,53032
41335,53025
41330,53045
41337,53049
41351,53065
41343,53063
41338,53090
41347,53102
41361,53112
41359,53109
41351,53120
41364,53142
41368,53132
41363,53155
41370,53152
41370,53168
41362,53165
41367,53195
41380,53188
41375,53207
41386,53219
41394,53207
41372,53230
41378,53233
41395,53252
41384,53255
41410,53247
41393,53272
41377,53271
41400,53295
41389,53289
41401,53287
41408,53287
41411,53313
41416,53316
41404,53319
41425,53312
41408,53327
41415,53342
41412,53339
41417,53364
41421,53359
41423,53375
41414,53390
41423,53398
41426,53406
41429,53388
41420,53383
41399,53341
41394,53281
41333,53144
41274,52972
41245,52848
41229,52726
41176,52616
41178,52546
41160,52507
41153,52498
41159,52464
41155,52480
41161,52484
41159,52492
41167,52517
41173,52538
41204,52557
41194,52602
41211,52599
41203,52623
41220,52657
41213,52657
41228,52678
41214,52690
41229,52713
41238,52711
41240,52722
41251,52721
41254,52733
41246,52763
41246,52796
41262,52802
41276,52834
41271,52851
41282,52848
41285,52838
41272,52833
41266,52826
41261,52828
41251,52793
41252,52801
41252,52790
41245,52774
41256,52779
41244,52762
41249,52773
41250,52798
41258,52801
41280,52815
41285,52810
41263,52825
41269,52844
41265,52860
41280,52867
41283,52880
41275,52901
41301,52900
41304,52931
41300,52934
41304,52971
41312,52957
41305,52994
41304,52998
41325,53009
41321,53019
41321,53039
41322,53046
41318,53056
41330,53103
41342,53115
41348,53090
41343,53077
41343,53110
41352,53096
41352,53126
41353,53150
41342,53161
41357,53175
41381,53173
41363,53174
41373,53199
41381,53181
41362,53199
41353,53222
41356,53219
41353,53233
41373,53251
41377,53248
41386,53257
41372,53266
41391,53293
41391,53292
41386,53287
41382,53294
41380,53298
41385,53312
41395,53311
41390,53319
41383,53329
41388,53330
41405,53338
41404,53342
41401,53349
41409,53378
41398,53388
41398,53395
41418,53393
41410,53398
41403,53406
41419,53419
41426,53409
41407,53400
41392,53373
41386,53300
41334,53171
41298,53003
41242,52878
41221,52761
41200,52648
41172,52589
41147,52562
41144,52517
41139,52507
41150,52532
41154,52521
41182,52527
41172,52556
41174,52599
41183,52616
41204,52634
41204,52665
41199,52678
41213,52705
41210,52739
41228,52744
41233,52753
41231,52759
41251,52775
41253,52781
41245,52818
41263,52819
41260,52866
41260,52882
41281,52905
41275,52908
41288,52912
41285,52911
41279,52928
41272,52916
41266,52887
41268,52869
41265,52863
41238,52855
41251,52829
41255,52839
41273,52832
41249,52831
41255,52851
41252,52849
41242,52854
41279,52858
41274,52874
41268,52891
41271,52908
41277,52903
41287,52930
41284,52933
41295,52964
41289,52960
41306,52978
41297,52971
41301,53017
41299,53032
41308,53011
41317,53037
41321,53063
41303,53066
41308,53079
41316,53088
41321,53095
41325,53102
41334,53113
41339,53127
41335,53139
41341,53138
41328,53153
41341,53168
41352,53161
41341,53177
41341,53177
41362,53204
41349,53194
41368,53214
41355,53222
41366,53223
41347,53233
41364,53239
41370,53248
41371,53252
41371,53257
41368,53271
41365,53271
41374,53278
41366,53285
41371,53313
41375,53310
41376,53316
41366,53310
41378,53331
41388,53344
41369,53334
41380,53352
41386,53351
41392,53367
41401,53372
41396,53383
41397,53390
41398,53408
41394,53410
41392,53407
41396,53407
41409,53381
41366,53333
41336,53231
41284,53063
41257,52934
41230,52822
41182,52707
41176,52635
41157,52600
41160,52559
41141,52539
41158,52553
41148,52546
41143,52566
41156,52614
41169,52616
41180,52641
41202,52661
41207,52684
41207,52719
41205,52727
41224,52759
41229,52760
41216,52791
41234,52799
41246,52811
41247,52833
41229,52843
41252,52866
41259,52912
41276,52911
41275,52946
41272,52949
41273,52952
41277,52962
41266,52951
41274,52931
41241,52921
41261,52896
41272,52874
41251,52873
41243,52859
41238,52867
41249,52849
41250,52860
41241,52868
41251,52892
41258,52887
41262,52903
41263,52918
41269,52935
41280,52943
41284,52949
41281,52960
41278,52978
41296,52985
41292,53021
41290,53009
41300,53030
41295,53059
41307,53055
41320,53062
41318,53096
41333,53095
41325,53109
41308,53109
41313,53126
41312,53134
41321,53151
41324,53157
41334,53168
41331,53172
41333,53179
41343,53184
41353,53201
41341,53195
41346,53210
41324,53168
41345,53228
41341,53230
41341,53230
41350,53255
41352,53269
41346,53273
41353,53280
41354,53285
41371,53306
41382,53301
41361,53303
41378,53314
41365,53322
41368,53314
41371,53348
41381,53348
41370,53333
41384,53331
41398,53368
41393,53368
41381,53369
41380,53383
41391,53381
41389,53407
41382,53420
41397,53427
41420,53435
41414,53454
41401,53454
41385,53448
41365,53432
41355,53387
41338,53297
41299,53177
41253,53028
41220,52880
41184,52764
41168,52657
41141,52598
41126,52571
41136,52535
41136,52531
41131,52537
41133,52542
41126,52559
41141,52576
41154,52608
41171,52624
41161,52638
41184,52652
41179,52670
41175,52697
41177,52719
41187,52716
41187,52734
41201,52745
41196,52754
41203,52755
41201,52764
41212,52782
41231,52816
41224,52836
41221,52844
41226,52864
41238,52875
41237,52877
41247,52870
41237,52867
41226,52855
41235,52845
41229,52840
41225,52815
41221,52822
41218,52803
41209,52809
41226,52821
41245,52812
41226,52802
41228,52832
41236,52854
41233,52833
41234,52864
41241,52867
41247,52882
41253,52904
41238,52915
41257,52921
41262,52931
41250,52955
41268,52953
41280,52963
41262,52982
41266,52996
41278,53018
41291,53033
41283,53033
41280,53059
41284,53059
41281,53064
41279,53058
41284,53094
41305,53085
41300,53094
41311,53104
41306,53116
41307,53122
41317,53131
41327,53145
41327,53157
41316,53157
41328,53169
41326,53185
41319,53185
41327,53194
41330,53210
41316,53221
41340,53223
41331,53233
41344,53252
41337,53245
41338,53257
41338,53274
41335,53268
41341,53274
41322,53294
41339,53272
41340,53288
41360,53329
41366,53304
41351,53335
41348,53339
41361,53334
41356,53353
41369,53359
41364,53377
41363,53377
41366,53369
41376,53352
41340,53312
41312,53249
41273,53104
41235,52961
41197,52842
41184,52740
41153,52661
41145,52591
41128,52573
41131,52549
41114,52546
41131,52557
41130,52574
41131,52594
41158,52610
41169,52619
41169,52675
41165,52691
41203,52720
41184,52746
41183,52761
41200,52778
41217,52805
41212,52806
41222,52816
41222,52834
41231,52861
41248,52888
41239,52903
41251,52910
41256,52950
41259,52958
41239,52956
41264,52969
41259,52939
41235,52937
41242,52916
41238,52902
41229,52868
41229,52871
41224,52853
41227,52862
41222,52868
41224,52865
41247,52880
41236,52898
41234,52890
41260,52898
41250,52923
41251,52921
41259,52935
41257,52964
41259,52964
41272,53003
41269,53009
41269,53001
41294,53028
41289,53029
41290,53066
41284,53057
41301,53078
41294,53105
41291,53101
41291,53116
41298,53116
41308,53125
41293,53136
41323,53142
41316,53147
41305,53172
41303,53161
41306,53192
41312,53171
41316,53200
41317,53191
41341,53205
41326,53218
41319,53240
41330,53231
41342,53236
41315,53261
41334,53265
41339,53266
41354,53272
41335,53302
41347,53289
41352,53321
41350,53310
41372,53329
41366,53335
41357,53361
41362,53358
41367,53357
41370,53340
41342,53296
41318,53227
41267,53085
41223,52937
41188,52832
41164,52708
41147,52635
41111,52565
41121,52544
41120,52524
41106,52505
41112,52506
41103,52503
41114,52530
41099,52541
41123,52570
41127,52578
41153,52589
41146,52625
41142,52631
41138,52641
41154,52669
41168,52672
41161,52674
41185,52673
41169,52710
41170,52717
41186,52766
41194,52790
41203,52806
41216,52781
41214,52827
41217,52828
41218,52848
41196,52837
41214,52823
41213,52828
41208,52807
41202,52808
41203,52794
41243,52772
41186,52797
41194,52785
41167,52787
41184,52787
41208,52792
41201,52805
41207,52819
41209,52827
41223,52834
41211,52853
41224,52873
41235,52890
41242,52897
41243,52922
41237,52912
41230,52930
41251,52936
41262,52953
41255,52974
41257,52990
41260,52984
41271,53007
41278,53008
41258,53032
41281,53050
41275,53044
41287,53062
41282,53061
41289,53059
41295,53086
41275,53089
41289,53095
41305,53110
41293,53133
41299,53134
41311,53138
41298,53146
41305,53141
41311,53174
41305,53173
41308,53189
41321,53194
41320,53210
41326,53205
41310,53205
41328,53255
41330,53248
41339,53244
41318,53250
41333,53261
41322,53263
41337,53270
41331,53276
41346,53286
41349,53301
41342,53300
41343,53308
41363,53317
41361,53324
41348,53323
41362,53344
41349,53341
41370,53350
41378,53365
41369,53368
41380,53391
41363,53409
41369,53389
41357,53364
41329,53321
41307,53222
41264,53081
41215,52920
41184,52806
41150,52699
41142,52625
41129,52575
41106,52542
41122,52535
41108,52533
41115,52521
41113,52540
41128,52559
41138,52591
41134,52586
41152,52633
41152,52659
41159,52679
41149,52689
41174,52712
41172,52715
41177,52720
41195,52736
41170,52739
41184,52766
41173,52776
41206,52793
41207,52839
41206,52833
41219,52861
41220,52872
41214,52873
41220,52877
41223,52883
41228,52879
41222,52875
41204,52859
41217,52829
41209,52830
41212,52802
41211,52808
41202,52804
41203,52813
41182,52811
41212,52804
41197,52814
41210,52832
41223,52857
41216,52861
41232,52862
41229,52884
41232,52909
41218,52900
41233,52926
41250,52930
41237,52929
41250,52950
41247,52951
41239,53001
41243,52986
41267,52988
41263,53015
41267,53002
41265,53019
41283,53028
41276,53042
41274,53041
41295,53072
41294,53072
41279,53085
41286,53084
41284,53119
41290,53094
41286,53119
41303,53138
41299,53129
41292,53139
41304,53153
41306,53152
41315,53163
41312,53178
41316,53161
41313,53189
41312,53197
41321,53205
41310,53209
41321,53224
41317,53233
41322,53230
41315,53227
41310,53245
41319,53242
41332,53266
41328,53254
41330,53259
41334,53273
41335,53274
41349,53281
41324,53302
41362,53307
41341,53311
41354,53316
41346,53332
41355,53339
41350,53347
41345,53334
41336,53304
41308,53245
41297,53148
41233,53010
41209,52883
41161,52732
41147,52651
41124,52587
41118,52555
41106,52511
41101,52504
41095,52508
41095,52510
41115,52528
41119,52528
41115,52556
41121,52584
41125,52596
41141,52612
41151,52636
41144,52679
41131,52676
41145,52677
41170,52681
41156,52708
41159,52722
41163,52738
41182,52765
41176,52769
41194,52798
41183,52810
41208,52829
41208,52827
41211,52865
41203,52849
41203,52835
41202,52819
41182,52800
41193,52798
41175,52777
41182,52781
41182,52754
41172,52760
41166,52766
41167,52759
41193,52762
41187,52775
41180,52782
41185,52801
41188,52815
41195,52811
41196,52825
41191,52835
41198,52855
41195,52866
41191,52884
41225,52886
41209,52913
41212,52936
41224,52935
41224,52911
41227,52947
41223,52957
41234,52974
41239,52994
41244,52994
41237,52989
41242,53025
41262,53018
41239,53039
41274,53032
41254,53047
41238,53071
41239,53057
41261,53072
41258,53070
41265,53097
41287,53099
41276,53115
41288,53119
41273,53151
41279,53139
41292,53149
41282,53165
41283,53157
41279,53171
41296,53185
41295,53205
41279,53205
41304,53198
41307,53210
41311,53216
41302,53224
41300,53240
41303,53239
41293,53247
41322,53248
41301,53240
41316,53273
41313,53269
41297,53257
41310,53277
41321,53294
41322,53304
41318,53307
41346,53321
41328,53326
41333,53355
41341,53354
41326,53363
41332,53376
41327,53363
41335,53345
41307,53290
41266,53191
41227,53037
41192,52891
41146,52731
41117,52636
41098,52567
41075,52504
41067,52481
41060,52455
41049,52437
41048,52444
41050,52449
41072,52453
41057,52470
41072,52492
41073,52494
41076,52540
41077,52546
41095,52561
41094,52573
41107,52587
41106,52583
41090,52585
41101,52604
41118,52609
41117,52631
41124,52646
41132,52643
41127,52673
41137,52694
41143,52716
41155,52707
41171,52723
41162,52730
41149,52716
41142,52729
41137,52711
41129,52704
41130,52677
41124,52692
41124,52660
41131,52658
41135,52669
41128,52666
41128,52664
41136,52678
41128,52682
41135,52685
41142,52688
41140,52722
41144,52716
41146,52745
41154,52732
41138,52759
41162,52763
41143,52786
41167,52785
41158,52813
41160,52814
41161,52828
41177,52826
41178,52843
41184,52862
41189,52862
41185,52892
41191,52878
41185,52916
41201,52906
41203,52917
41209,52930
41207,52942
41220,52955
41212,52978
41211,52992
41219,52992
41215,52989
41209,52992
41223,53002
41222,53017
41230,53028
41229,53047
41235,53050
41243,53067
41235,53086
41253,53090
41248,53088
41255,53087
41252,53096
41246,53109
41241,53113
41239,53125
41254,53150
41259,53138
41255,53146
41257,53159
41264,53162
41261,53178
41272,53198
41262,53173
41259,53185
41269,53196
41265,53201
41260,53216
41277,53225
41286,53241
41266,53253
41274,53238
41298,53246
41277,53267
41281,53275
41289,53266
41295,53295
41292,53299
41297,53312
41294,53324
41305,53333
41294,53334
41308,53343
41300,53349
41307,53330
41287,53274
41242,53175
41192,53024
41161,52877
41109,52737
41077,52620
41067,52546
41044,52492
41032,52465
41028,52439
41027,52436
41042,52438
41036,52446
41048,52458
41043,52473
41055,52504
41062,52544
41071,52562
41072,52574
41091,52588
41088,52609
41094,52619
41080,52628
41108,52645
41104,52668
41123,52673
41119,52685
41121,52726
41129,52743
41143,52757
41153,52787
41156,52774
41150,52785
41142,52800
41126,52785
41132,52770
41137,52749
41123,52745
41122,52703
41112,52720
41115,52702
41110,52683
41120,52683
41130,52693
41108,52689
41108,52700
41117,52694
41110,52717
41119,52714
41137,52731
41144,52746
41144,52789
41145,52794
41144,52796
41140,52808
41152,52813
41148,52829
41175,52828
41169,52855
41170,52858
41170,52888
41175,52893
41179,52921
41175,52922
41204,52931
41178,52957
41177,52941
41185,52944
41174,52966
41188,53006
41193,52997
41193,52992
41199,52972
41195,53006
41204,53027
41212,53064
41209,53074
41211,53073
41221,53058
41211,53090
41237,53098
41239,53112
41239,53112
41244,53129
41216,53123
41233,53140
41221,53153
41244,53161
41230,53165
41245,53167
41243,53188
41246,53180
41248,53194
41241,53194
41259,53205
41265,53203
41252,53218
41262,53217
41260,53229
41271,53238
41263,53256
41265,53269
41287,53271
41265,53288
41290,53286
41274,53301
41279,53306
41269,53314
41288,53322
41268,53293
41247,53259
41238,53164
41184,53005
41127,52873
41108,52718
41098,52667
41112,52683
41106,52702
41106,52705
41107,52705
41115,52715
41096,52695
41100,52689
41097,52666
41084,52652
41081,52629
41073,52633
41089,52635
41080,52617
41084,52628
41077,52630
41092,52634
41088,52664
41094,52656
41105,52678
41106,52687
41127,52701
41109,52717
41110,52715
41121,52731
41121,52741
41122,52744
41127,52759
41138,52790
41144,52795
41137,52809
41152,52821
41147,52819
41161,52854
41149,52864
41163,52879
41161,52889
41176,52902
41177,52906
41159,52918
41167,52931
41170,52948
41176,52962
41169,52954
41193,52975
41188,52990
41166,52989
41187,53011
41208,53015
41196,53029
41211,53042
41188,53050
41202,53050
41205,53049
41206,53074
41212,53070
41221,53093
41207,53100
41202,53100
41231,53126
41229,53112
41228,53132
41231,53154
41228,53150
41230,53155
41225,53179
41239,53175
41233,53168
41240,53202
41241,53203
41239,53189
41242,53200
41243,53205
41252,53218
41248,53235
41245,53257
41266,53253
41261,53266
41258,53291
41271,53312
41282,53303
41271,53293
41280,53317
41267,53299
41237,53263
41226,53186
41189,53055
41139,52890
41094,52751
41074,52615
41019,52534
41023,52466
41003,52417
40999,52398
40996,52377
41002,52361
40994,52384
41002,52384
41002,52401
41012,52433
41014,52442
41012,52471
41027,52475
41041,52495
41048,52528
41046,52521
41064,52534
41057,52564
41061,52560
41060,52577
41074,52583
41086,52608
41081,52629
41088,52651
41104,52652
41100,52685
41092,52700
41106,52722
41113,52710
41107,52710
41116,52705
41101,52698
41096,52681
41088,52679
41092,52647
41093,52660
41084,52646
41100,52644
41080,52640
41093,52634
41098,52650
41083,52655
41095,52666
41099,52680
41123,52688
41110,52698
41111,52711
41137,52712
41123,52744
41126,52762
41140,52765
41141,52774
41151,52797
41132,52807
41141,41141
41159,52836
41163,52848
41154,52846
41159,52868
41167,52885
41166,52881
41167,52918
41175,52918
41184,52926
41170,52933
41178,52948
41175,52959
41178,52975
41184,53008
41191,52999
41215,53012
41200,53022
41214,53019
41207,53027
41204,53048
41205,53063
41208,53049
41200,53075
41217,53085
41228,53090
41227,53105
41250,53098
41218,53119
41224,53115
41222,53145
41228,53135
41227,53178
41247,53178
41239,53155
41259,53135
41233,53180
41246,53162
41268,53188
41246,53199
41251,53209
41257,53225
41250,53216
41256,53231
41286,53240
41298,53257
41250,53263
41263,53283
41250,53276
41266,53291
41281,53308
41273,53302
41274,53291
41252,53282
41245,53223
41211,53107
41160,52964
41122,52829
41102,52696
41078,52587
41062,52529
41053,52476
41020,52442
41015,52422
41039,52434
41021,52438
41044,52464
41043,52464
41049,52516
41056,52534
41063,52560
41080,52593
41091,52599
41104,52630
41104,52642
41117,52670
41105,52686
41119,52709
41143,52719
41138,52742
41141,52756
41147,52808
41153,52822
41157,52841
41165,52865
41179,52864
41165,52866
41169,52872
41158,52866
41162,52840
41154,52833
41141,52791
41146,52788
41148,52786
41132,52780
41143,52760
41137,52769
41132,52766
41138,52782
41141,52785
41160,52818
41149,52812
41160,52823
41161,52840
41149,52860
41172,52865
41182,52871
41186,52909
41195,52910
41183,52939
41191,52951
41187,52953
41201,52982
41215,52976
41216,53004
41211,53008
41222,53022
41213,53021
41224,53050
41234,53044
41220,53050
41235,53073
41241,53095
41242,53104
41250,53130
41239,53122
41246,53133
41252,53143
41253,53156
41247,53159
41256,53169
41256,53187
41266,53179
41265,53205
41269,53211
41263,53222
41280,53238
41273,53228
41279,53252
41280,53246
41283,53256
41288,53262
41275,53274
41278,53276
41269,53262
41291,53290
41284,53307
41299,53290
41287,53310
41297,53320
41301,53318
41296,53337
41302,53343
41297,53343
41300,53364
41295,53370
41303,53373
41322,53379
41324,53392
41301,53372
41296,53340
41267,53276
41238,53147
41189,52985
41149,52874
41118,52735
41095,52640
41069,52570
41056,52527
41050,52487
41053,52470
41041,52470
41051,52475
41043,52482
41049,52514
41066,52523
41066,52553
41081,52581
41094,52602
41085,52617
41086,52619
41111,52651
41128,52647
41134,52659
41122,52685
41112,52670
41132,52696
41135,52707
41142,52733
41156,52765
41153,52786
41168,52792
41163,52811
41155,52829
41190,52829
41167,52834
41162,52825
41176,52813
41167,52816
41146,52808
41169,52782
41139,52781
41153,52765
41155,52774
41149,52769
41148,52765
41162,52769
41161,52804
41166,52789
41163,52828
41176,52828
41179,52835
41193,52847
41182,52867
41193,52883
41181,52892
41177,52906
41199,52911
41206,52942
41205,52944
41219,52972
41212,52977
41216,52987
41223,53004
41234,53021
41220,53038
41240,53044
41223,53061
41239,53068
41245,53072
41237,53095
41251,53095
41271,53113
41252,53123
41249,53121
41251,53148
41258,53140
41265,53147
41265,53170
41257,53171
41278,53192
41278,53203
41276,53204
41281,53214
41277,53225
41281,53234
41275,53222
41281,53241
41279,53251
41291,53258
41282,53275
41295,53282
41294,53286
41289,53308
41305,53280
41310,53315
41298,53337
41308,53308
41321,53337
41326,53343
41312,53347
41305,53350
41310,53355
41312,53370
41332,53374
41313,53380
41332,53409
41323,53417
41327,53410
41332,53427
41326,53440
41357,53458
41378,53444
41343,53448
41334,53438
41326,53435
41306,53366
41281,53234
41222,53149
41191,53004
41156,52872
41114,52722
41086,52578
41080,52573
41097,52552
41087,52562
41085,52578
41094,52588
41101,52597
41127,52637
41134,52660
41121,52678
41131,52704
41133,52732
41310,53355
41153,52773
41158,52784
41177,52798
41172,52810
41183,52815
41194,52845
41182,52857
41195,52875
41197,52899
41220,52927
41217,52949
41206,52965
41230,52988
41217,52958
41227,52973
41221,52964
41208,52951
41212,52946
41200,52923
41204,52907
41202,52886
41178,52891
41190,52884
41193,52889
41204,52897
41189,52892
41212,52893
41193,52909
41227,52928
41222,52931
41220,52955
41237,52967
41233,52995
41227,52988
41229,52999
41243,53023
41249,53038
41233,53033
41250,53056
41249,53088
41262,53084
41255,53103
41273,53112
41271,53111
41257,53143
41271,53134
41269,53149
41271,53154
41280,53165
41285,53183
41273,53193
41292,53214
41275,53217
41280,53222
41284,53222
41299,53240
41285,53262
41295,53266
41304,53277
41289,53283
41305,53290
41302,53292
41311,53310
41307,53321
41296,53328
41325,53335
41319,53332
41310,53343
41326,53350
41319,53360
41336,53357
41318,53359
41317,53377
41326,53377
41319,53381
41312,53387
41355,53402
41339,53415
41332,53418
41334,53434
41330,53435
41350,53437
41346,53454
41363,53451
41351,53461
41341,53478
41360,53481
41352,53454
41336,53439
41324,53334
41290,53226
41229,53065
41198,52939
41169,52859
41146,52742
41118,52701
41114,52671
41115,52652
41132,52630
41115,52632
41116,52661
41124,52685
41154,52706
41145,52725
41177,52745
41162,52786
41175,52808
41173,52818
41185,52838
41199,52845
41195,52871
41198,52903
41214,52916
41206,52919
41213,52929
41230,52969
41224,52976
41236,53027
41253,53045
41250,53042
41238,53053
41247,53061
41247,53062
41244,53063
41234,53033
41232,53017
41236,53015
41229,52998
41227,52990
41224,52985
41215,52977
41224,52988
41219,52980
41242,53001
41244,53006
41234,53014
41239,53016
41257,53022
41246,53045
41261,53045
41254,53072
41250,53084
41264,53102
41252,53115
41273,53140
41277,53139
41279,53166
41278,53184
41276,53178
41297,53186
41291,53191
41290,53208
41314,53231
41316,53234
41297,53265
41294,53245
41296,53260
41307,53274
41318,53283
41316,53293
41303,53292
41322,53303
41314,53320
41314,53332
41316,53338
41322,53349
41319,53354
41347,53373
41337,53384
41320,53391
41338,53392
41342,53407
41335,53423
41355,53414
41335,53420
41345,53427
41349,53434
41356,53450
41349,53460
41359,53454
41348,53472
41363,53460
41374,53470
41363,53502
41359,53496
41370,53499
41356,53498
41379,53505
41367,53508
41366,53529
41372,53531
41371,53552
41365,53557
41387,53561
41379,53572
41380,53576
41372,53560
41373,53503
41316,53419
41286,53291
41240,53137
41209,52991
41189,52900
41157,52807
41143,52761
41133,52713
41132,52708
41126,52701
41144,52721
41146,52721
41153,52739
41159,52757
41162,52803
41176,52816
41178,52840
41180,52851
41186,52879
41196,52890
41187,52900
41204,52914
41202,52932
41202,52941
41231,52935
41221,52961
41219,52992
41211,53003
41230,53036
41222,53055
41266,53056
41248,53091
41260,53121
41252,53112
41258,53052
41248,53036
41245,53036
41250,53050
41237,53027
41237,53021
41248,53020
41224,53021
41233,53016
41239,53038
41265,53038
41271,53065
41241,53059
41230,53057
41256,53080
41238,53087
41262,53103
41248,53113
41263,53140
41278,53139
41265,53159
41272,53165
41274,53167
41280,53192
41287,53201
41286,53212
41291,53219
41306,53243
41308,53245
41300,53259
41307,53277
41302,53277
41308,53286
41296,53311
41291,53308
41319,53315
41310,53328
41312,53328
41304,53348
41314,53360
41336,53360
41337,53364
41330,53385
41330,53387
41339,53401
41325,53413
41337,53408
41339,53416
41343,53438
41348,53448
41342,53436
41351,53467
41350,53457
41334,53478
41352,53472
41349,53484
41356,53465
41359,53509
41361,53502
41359,53516
41364,53511
41363,53525
41372,53546
41355,53538
41359,53533
41373,53532
41372,53540
41368,53562
41356,53568
41358,53572
41365,53574
41372,53579
41379,53608
41373,53611
41386,53603
41384,53630
41368,53621
41374,53644
41383,53638
41382,53635
41357,53612
41351,53574
41331,53488
41296,53377
41242,53229
41206,53102
41186,52996
41170,52901
41153,52851
41132,52804
41152,52799
41146,52791
41160,52805
41166,52803
41159,52845
41186,52880
41186,52892
41191,52944
41205,52962
41208,52998
41224,53001
41216,53038
41241,53051
41238,53078
41244,53075
41241,53082
41242,53089
41242,53130
41281,53160
41268,53165
41260,53205
41287,53219
41278,53225
41285,53229
41288,53247
41266,53223
41284,53218
41265,53204
41255,53176
41257,53153
41266,53165
41244,53152
41244,53137
41242,53140
41246,53126
41243,53139
41263,53133
41259,53156
41259,53151
41263,53177
41268,53185
41273,53203
41279,53225
41282,53238
41283,53244
41277,53245
41288,53283
41294,53276
41303,53305
41304,53320
41296,53326
41319,53318
41320,53346
41312,53364
41324,53372
41301,53376
41314,53370
41301,53392
41329,53391
41313,53402
41335,53415
41332,53414
41337,53412
41321,53431
41347,53451
41334,53444
41336,53471
41329,53464
41323,53479
41351,53493
41356,53490
41343,53499
41349,53500
41340,53511
41358,53525
41338,53532
41348,53536
41339,53535
41364,53553
41357,53558
41373,53547
41363,53588
41372,53571
41362,53569
41374,53603
41374,53598
41373,53594
41359,53621
41378,53636
41366,53632
41376,53636
41385,53643
41369,53621
41363,53631
41349,53560
41323,53473
41291,53328
41246,53201
41197,53086
41176,52983
41155,52910
41132,52855
41141,52814
41140,52801
41142,52823
41140,52819
41149,52845
41143,52846
41159,52861
41159,52900
41169,52934
41191,52921
41174,52969
41198,52981
41195,52993
41208,52995
41217,53026
41205,53044
41221,53027
41215,53054
41218,53054
41222,53098
41227,53089
41243,53139
41245,53148
41247,53178
41242,53185
41257,53204
41244,53192
41264,53200
41237,53183
41240,53200
41233,53182
41251,53164
41235,53167
41223,53146
41239,53157
41241,53157
41241,53158
41229,53170
41245,53169
41244,53191
41251,53188
41257,53202
41268,53210
41261,53227
41270,53230
41257,53231
41263,53250
41266,53255
41292,53290
41279,53291
41284,53303
41273,53302
41282,53318
41289,53363
41300,53373
41293,53354
41298,53352
41303,53372
41299,53380
41298,53392
41310,53417
41318,53419
41310,53430
41329,53438
41322,53450
41345,53448
41359,53460
41312,53468
41298,53486
41293,53486
41245,53169
41318,53507
41317,53522
41336,53498
41336,53515
41320,53544
41331,53538
41335,53544
41336,53560
41340,53564
41345,53581
41360,53589
41353,53601
41354,53602
41346,53609
41360,53619
41349,53610
41339,53613
41338,53582
41300,53503
41282,53387
41235,53245
41192,53115
41176,53021
41165,52939
41134,52880
41127,52823
41127,52814
41125,52816
41122,52842
41142,52842
41123,52843
41131,52853
41162,52875
41155,52906
41166,52929
41161,52951
41162,52984
41174,52997
41169,53009
41177,53031
41191,53031
41243,53178
41246,53223
41250,53220
41244,53222
41257,53248
41264,53258
41263,53267
41253,53286
41267,53301
41267,53288
41282,53321
41282,53323
41266,53345
41281,53337
41285,53344
41278,53360
41285,53364
41287,53363
41274,53379
41286,53386
41296,53394
41288,53410
41293,53413
41290,53432
41310,53428
41290,53444
41297,53440
41306,53464
41286,53463
41298,53464
41321,53501
41304,53489
41306,53503
41335,53514
41310,53519
41321,53534
41312,53532
41328,53541
41323,53537
41341,53549
41343,53572
41335,53570
41347,53577
41339,53577
41321,53596
41328,53599
41329,53598
41324,53605
41345,53608
41339,53618
41337,53628
41362,53649
41361,53645
41357,53662
41340,53654
41349,53670
41345,53665
41342,53650
41346,53612
41300,53536
41269,53443
41222,53263
41196,53136
41173,53051
41150,52966
41133,52901
41126,52869
41106,52862
41129,52853
41137,52870
41138,52886
41136,52935
41155,52951
41156,52960
41152,52999
41179,53033
41173,53043
41178,53058
41190,53075
41202,53101
41193,53114
41193,53133
41189,53141
41223,53139
41220,53172
41237,53185
41254,53205
41230,53238
41255,53245
41246,53274
41253,53265
41249,53284
41245,53271
41240,53259
41246,53246
41232,53228
41242,53232
41239,53215
41220,53196
41212,53196
41227,53186
41230,53197
41229,53209
41227,53191
41229,53207
41230,53226
41242,53218
41237,53261
41236,53261
41233,53271
41246,53273
41241,53293
41253,53303
41255,53304
41263,53336
41267,53335
41267,53357
41262,53349
41259,53373
41266,53371
41280,53375
41284,53395
41273,53409
41277,53416
41277,53408
41299,53415
41288,53435
41284,53447
41288,53439
41288,53451
41293,53459
41302,53469
41294,53470
41302,53473
41301,53499
41313,53511
41290,53516
41291,53521
41314,53543
41307,53537
41320,53545
41309,53559
41319,53567
41320,53565
41326,53572
41330,53581
41325,53613
41313,53588
41313,53595
41320,53600
41327,53620
41330,53579
41331,53628
41343,53626
41338,53650
41344,53656
41331,53667
41323,53669
41345,53672
41330,53672
41320,53668
41354,53634
41299,53588
41255,53463
41237,53301
41192,53198
41140,52997
41126,52897
41110,52832
41106,52822
41108,52850
41103,52848
41105,52870
41111,52886
41114,52903
41141,52944
41151,52972
41168,52967
41180,52988
41153,53023
41159,53042
41320,53600
41157,53066
41171,53073
41179,53109
41177,53100
41193,53113
41192,53132
41189,53175
41207,53183
41221,53206
41213,53217
41217,53237
41228,53224
41217,53231
41211,53232
41206,53234
41194,53210
41202,53196
41201,53194
41203,53196
41199,53170
41194,53169
41201,53166
41198,53162
41212,53180
41214,53187
41200,53194
41201,53209
41212,53212
41216,53233
41219,53240
41224,53246
41240,53269
41206,53278
41235,53281
41232,53295
41213,53306
41235,53336
41251,53337
41239,53361
41254,53391
41255,53381
41250,53385
41257,53415
41251,53415
41258,53425
41262,53429
41262,53421
41273,53431
41274,53449
41271,53453
41266,53454
41279,53479
41292,53483
41281,53483
41271,53490
41280,53493
41287,53500
41284,53512
41292,53536
41286,53522
41286,53527
41293,53555
41296,53547
41292,53569
41287,53574
41283,53584
41304,53589
41302,53594
41299,53593
41290,53593
41302,53613
41313,53615
41314,53626
41313,53644
41314,53650
41327,53651
41300,53655
41322,53665
41321,53666
41328,53687
41312,53673
41326,53685
41311,53692
41312,53696
41316,53713
41334,53699
41329,53726
41324,53740
41334,53737
41339,53747
41324,53751
41328,53740
41320,53713
41306,53652
41264,53558
41218,53405
41183,53238
41159,53122
41113,53027
41096,52938
41096,52888
41085,52877
41083,52866
41086,52862
41079,52868
41087,52912
41089,52915
41111,52938
41111,52959
41121,53003
41118,53017
41122,53038
41138,53077
41144,53067
41147,53085
41165,53092
41165,53098
41149,53122
41150,53127
41181,53161
41169,53167
41185,53184
41201,53227
41187,53232
41208,53247
41208,53262
41196,53261
41201,53246
41204,53243
41181,53232
41193,53220
41185,53199
41187,53203
41181,53196
41187,53191
41180,53190
41172,53187
41176,53175
41178,53189
41180,53193
41194,53194
41188,53217
41180,53234
41192,53245
41198,53266
41206,53255
41205,53276
41215,53282
41191,53309
41206,53327
41206,53325
41226,53347
41216,53370
41217,53368
41226,53369
41216,53389
41221,53381
41223,53391
41238,53382
41227,53424
41241,53442
41236,53436
41245,53442
41235,53440
41250,53473
41240,53468
41249,53480
41245,53491
41257,53500
41246,53510
41252,53513
41274,53516
41261,53515
41267,53527
41265,53539
41259,53538
41269,53562
41269,53558
41275,53561
41266,53578
41290,53586
41272,53598
41268,53588
41280,53597
41285,53595
41276,53609
41263,53615
41280,53621
41285,53624
41274,53632
41294,53629
41283,53658
41295,53656
41282,53672
41302,53681
41304,53690
41297,53685
41309,53691
41299,53706
41301,53720
41290,53707
41292,53677
41257,53623
41242,53523
41201,53385
41156,53231
41123,53145
41093,53043
41086,52952
41080,52936
41058,52895
41063,52893
41066,52884
41063,52880
41060,52938
41076,52924
41098,52959
41100,52984
41119,53014
41105,53013
41123,53060
41128,53080
41131,53088
41156,53120
41157,53135
41143,53147
41165,53182
41168,53196
41154,53218
41170,53248
41187,53271
41178,53297
41193,53324
41203,53337
41198,53296
41180,53263
41194,53298
41171,53260
41170,53263
41170,53250
41164,53243
41156,53234
41170,53239
41165,53220
41190,53229
41197,53246
41159,53240
41140,53251
41168,53255
41165,53275
41162,53287
41182,53313
41168,53332
41178,53324
41197,53347
41216,53364
41193,53380
41198,53393
41200,53404
41207,53409
41219,53424
41216,53426
41212,53446
41217,53449
41231,53479
41230,53462
41228,53478
41221,53487
41232,53482
41231,53494
41250,53506
41217,53522
41245,53528
41223,53550
41237,53550
41239,53548
41258,53547
41250,53573
41256,53590
41250,53586
41242,53595
41256,53607
41263,53606
41269,53606
41260,53619
41261,53624
41254,53644
41264,53648
41275,53658
41263,53668
41260,53672
41278,53664
41258,53681
41268,53683
41281,53692
41281,53699
41265,53703
41277,53710
41279,53707
41268,53710
41272,53724
41271,53731
41301,53759
41278,53751
41271,53768
41281,53768
41278,53751
41288,53779
41270,53738
41262,53683
41239,53590
41200,53449
41139,53296
41113,53164
41071,53083
41072,52981
41039,52931
41037,52894
41037,52876
41035,52884
41036,52873
41038,52897
41050,52906
41050,52917
41072,52959
41052,52970
41077,52998
41077,53025
41092,53024
41094,53045
41096,53065
41094,53098
41102,53096
41091,53096
41108,53130
41112,53135
41127,53166
41125,53184
41138,53192
41140,53219
41148,53254
41135,53262
41161,53266
41144,53275
41155,53267
41152,53257
41138,53254
41129,53244
41136,53230
41123,53217
41120,53213
41121,53199
41119,53189
41120,53184
41139,53211
41140,53202
41131,53234
41134,53213
41142,53262
41137,53247
41140,53270
41139,53273
41139,53299
41160,53304
41155,53305
41160,53323
41179,53326
41152,53352
41161,53362
41181,53387
41181,53390
41172,53409
41177,53424
41186,53430
41193,53440
41186,53446
41196,53448
41187,53463
41186,53474
41201,53481
41196,53480
41200,53500
41207,53517
41199,53539
41218,53534
41202,53547
41193,53546
41211,53540
41209,53551
41211,53573
41201,53579
41222,53579
41223,53588
41224,53601
41234,53614
41224,53622
41233,53621
41224,53627
41231,53643
41238,53652
41225,53659
41250,53655
41246,53657
41238,53669
41230,53668
41235,53687
41238,53690
41240,53698
41228,53708
41235,53701
41243,53714
41243,53720
41251,53721
41257,53732
41251,53750
41264,53763
41245,53761
41257,53752
41255,53763
41254,53749
41241,53714
41215,53658
41180,53541
41139,53412
41104,53266
41079,53149
41059,53044
41032,52977
41010,52941
41010,52906
41017,52909
41013,52926
41010,52908
41015,52926
41040,52965
41038,52978
41046,53025
41069,53048
41061,53060
41077,53090
41089,53113
41091,53142
41110,53151
41105,53182
41101,53174
41106,53204
41112,53232
41116,53256
41117,53262
41123,53282
41141,53304
41135,53335
41141,53344
41151,53344
41140,53350
41145,53340
41132,53336
41140,53316
41126,53299
41135,53282
41116,53282
41118,53249
41116,53256
41121,53268
41124,53271
41107,53263
41105,53257
41106,53264
41111,53287
41120,53289
41132,53299
41124,53318
41129,53320
41138,53320
41138,53352
41141,53368
41148,53387
41150,53384
41163,53397
41144,53427
41167,53421
41158,53448
41169,53467
41156,53475
41175,53444
41169,53454
41174,53486
41169,53503
41182,53510
41188,53530
41182,53521
41183,53544
41197,53544
41190,53554
41220,53554
41207,53579
41162,53590
41168,53588
41203,53581
41195,53595
41214,53624
41210,53637
41207,53627
41204,53635
41208,53642
41221,53657
41213,53662
41226,53660
41212,53666
41214,53676
41211,53672
41211,53680
41214,53694
41223,53699
41217,53709
41220,53708
41222,53712
41223,53723
41226,53744
41240,53730
41223,53743
41244,53750
41228,53765
41225,53757
41249,53772
41213,53758
41228,53737
41208,53682
41193,53593
41143,53466
41098,53309
41059,53191
41041,53096
41006,53028
40994,52978
41008,52937
41002,52927
41000,52934
40998,52945
41009,52962
41014,52968
41019,52997
41036,53025
41038,53038
41058,53071
41063,53115
41067,53143
41068,53150
41069,53163
41085,53192
41103,53197
41088,53205
41091,53234
41103,53247
41115,53276
41112,53303
41121,53323
41115,53335
41139,53360
41144,53380
41118,53364
41124,53375
41124,53365
41118,53349
41121,53347
41103,53311
41113,53308
41112,53288
41102,53298
41102,53290
41102,53275
41104,53289
41097,53291
41117,53297
41108,53303
41105,53326
41103,53340
41135,53348
41126,53359
41124,53374
41114,53379
41123,53398
41118,53407
41121,53410
41141,53433
41140,53448
41144,53447
41150,53476
41141,53468
41152,53499
41152,53493
41161,53520
41162,53524
41161,53539
41155,53543
41167,53545
41169,53557
41153,53571
41167,53573
41162,53578
41170,53583
41162,53608
41183,53605
41168,53602
41173,53619
41180,53631
41176,53642
41189,53644
41181,53665
41199,53664
41179,53666
41202,53693
41190,53691
41185,53706
41207,53706
41203,53713
41205,53705
41185,53720
41201,53728
41194,53743
41209,53724
41188,53730
41197,53729
41207,53752
41205,53743
41211,53755
41203,53763
41201,53782
41205,53793
41199,53809
41217,53807
41216,53807
41210,53817
41215,53804
41218,53824
41210,53821
41205,53774
41189,53722
41150,53619
41112,53459
41062,53304
41040,53195
41014,53099
40994,53033
40983,52985
40972,52966
40968,52951
40979,52947
40978,52958
40985,52983
40994,52993
41005,53023
41008,53045
41037,53061
41029,53083
41013,53108
41046,53120
41046,53172
41049,53177
41063,53183
41063,53200
41058,53205
41063,53220
41066,53244
41080,53267
41102,53303
41102,53312
41098,53336
41093,53360
41104,53353
41103,53381
41110,53369
41105,53357
41110,53365
41088,53349
41088,53321
41078,53338
41077,53312
41068,53295
41066,53298
41076,53298
41096,53299
41077,53318
41073,53333
41087,53330
41093,53330
41086,53333
41098,53350
41085,53371
41097,53386
41085,53388
41104,53406
41099,53419
41112,53414
41112,53435
41114,53439
41103,53455
41117,53474
41124,53484
41115,53505
41143,53505
41122,53523
41131,53528
41141,53544
41145,53547
41140,53551
41147,53569
41148,53586
41156,53575
41139,53589
41153,53604
41160,53593
41156,53610
41146,53619
41154,53595
41166,53636
41166,53639
41158,53645
41159,53657
41165,53672
41158,53667
41178,53675
41162,53700
41162,53698
41183,53706
41179,53722
41182,53707
41185,53728
41172,53749
41193,53775
41195,53772
41166,53743
41164,53726
41181,53763
41186,53761
41177,53765
41183,53778
41191,53803
41191,53805
41192,53805
41190,53808
41221,53813
41224,53808
41187,53842
41177,53832
41164,53837
41158,53803
41160,53760
41147,53682
41121,53549
41074,53419
41045,53288
41014,53185
41001,53108
40980,53062
40962,53023
40966,53031
40988,53009
40985,53029
40975,53035
40993,53070
40997,53088
41018,53132
41012,53152
41040,53184
41043,53210
41062,53234
41060,53242
41061,53259
41055,53280
41058,53298
41073,53314
41089,53359
41089,53359
41095,53404
41096,53418
41095,53453
41122,53457
41107,53466
41109,53482
41125,53479
41110,53476
41113,53461
41099,53453
41095,53432
41089,53424
41088,53399
41085,53388
41072,53388
41075,53386
41078,53366
41073,53370
41088,53381
41077,53392
41086,53379
41074,53402
41073,53419
41084,53423
41094,53455
41097,53467
41097,53474
41112,53484
41105,53474
41109,53498
41110,53515
41121,53532
41103,53547
41123,53538
41113,53558
41102,53563
41133,53571
41117,53587
41136,53584
41119,53595
41127,53605
41139,53614
41136,53621
41133,53625
41143,53627
41141,53642
41127,53638
41129,53653
41134,53645
41131,53668
41153,53662
41142,53680
41154,53691
41143,53686
41141,53706
41172,53690
41153,53725
41159,53723
41159,53706
41161,53743
41161,53750
41156,53771
41167,53782
41164,53777
41189,53776
41161,53788
41159,53808
41172,53812
41169,53833
41173,53827
41181,53822
41183,53822
41156,53795
41155,53781
41149,53706
41116,53593
41064,53469
41038,53320
41012,53213
40990,53140
40964,53066
40950,53028
40957,53014
40952,53012
40948,53002
40969,53011
40958,53020
40967,53052
40967,53066
40989,53096
40993,53110
41002,53146
41007,53141
41004,53180
41009,53187
41011,53194
41016,53202
41021,53219
41017,53229
41025,53265
41025,53268
41052,53311
41041,53333
41053,53349
41056,53379
41058,53394
41066,53396
41057,53393
41057,53401
41061,53401
41054,53382
41051,53368
41046,53345
41048,53351
41036,53349
41055,53341
41052,53334
41050,53340
41030,53350
41032,53339
41058,53358
41055,53364
41045,53382
41059,53401
41066,53405
41064,53413
41065,53432
41075,53439
41059,53448
41060,53453
41076,53472
41075,53485
41093,53478
41081,53488
41094,53508
41066,53515
41082,53534
41070,53536
41091,53537
41089,53546
41088,53566
41090,53562
41089,53560
41112,53561
41090,53562
41095,53593
41106,53576
41111,53591
41103,53594
41110,53603
41102,53613
41109,53618
41104,53631
41104,53638
41114,53638
41122,53659
41123,53664
41112,53672
41111,53688
41119,53704
41132,53724
41140,53723
41144,53725
41125,53730
41130,53754
41133,53741
41127,53746
41122,53727
41114,53670
41078,53578
41049,53451
40997,53314
40967,53210
40947,53135
40937,53045
40929,52995
40926,52973
40932,52963
40915,52970
40935,52962
40924,52981
40925,52994
40951,53024
40944,53019
40968,53055
40963,53098
40963,53087
40970,53097
40978,53131
40988,53150
40976,53138
40977,53166
40992,53195
41003,53190
40994,53226
41004,53238
41008,53272
41021,53276
41027,53317
41027,53332
41038,53330
41015,53325
41035,53338
41021,53337
41024,53347
41011,53311
41006,53282
41011,53258
41014,53259
40986,53293
41001,53292
41009,53288
41015,53292
41012,53303
41024,53315
41023,53334
41065,53320
41044,53354
41026,53359
41036,53367
40978,53131
41029,53382
41053,53399
41039,53411
41043,53425
41059,53432
41035,53430
41047,53446
41037,53459
41056,53463
41065,53469
41057,53487
41075,53491
41077,53505
41070,53505
41061,53506
41059,53528
41077,53543
41073,53535
41084,53533
41083,53553
41082,53567
41070,53565
41084,53577
41092,53608
41086,53600
41086,53618
41087,53623
41094,53634
41107,53642
41096,53638
41101,53651
41104,53671
41091,53673
41094,53674
41106,53695
41106,53686
41091,53706
41115,53698
41117,53719
41112,53724
41112,53742
41120,53745
41123,53757
41121,53767
41125,53774
41105,53779
41125,53774
41122,53776
41117,53756
41105,53738
41092,53647
41047,53530
40998,53373
40962,53260
40945,53159
40920,53068
40919,53025
40911,52983
40896,52987
40910,52983
40909,52975
40924,52993
40922,53026
40930,53035
40936,53065
40949,53095
40952,53114
40960,53143
40962,53162
40967,53172
40986,53192
40987,53213
40993,53224
40995,53236
40992,53254
40982,53263
41011,53285
41013,53326
41015,53345
41012,53377
41026,53395
41022,53404
41024,53389
41031,53380
41019,53386
41031,53372
41016,53358
41017,53345
41002,53333
40994,53325
40995,53326
41003,53307
40994,53327
41013,53335
41013,53320
41011,53337
41010,53349
41010,53352
41011,53346
41027,53371
41023,53394
41034,53404
41035,53422
41037,53419
41054,53434
41034,53439
41028,53457
41046,53468
41037,53482
41050,53495
41044,53490
41045,53512
41053,53510
41053,53517
41052,53537
41052,53543
41066,53531
41068,53561
41054,53570
41063,53559
41075,53563
41067,53575
41059,53582
41068,53588
41070,53585
41063,53601
41061,53606
41066,53608
41083,53615
41086,53648
41071,53640
41084,53638
41091,53669
41090,53666
41095,53660
41092,53676
41094,53701
41071,53686
41092,53697
41091,53720
41103,53722
41098,53725
41098,53722
41109,53748
41105,53747
41097,53767
41108,53754
41104,53758
41098,53773
41090,53751
41082,53727
41069,53650
41043,53555
41003,53424
40962,53283
40935,53174
40919,53103
40914,53059
40896,53019
40893,52981
40903,52992
40907,53006
40897,53010
40917,53008
40926,53040
40914,53075
40937,53088
40950,53116
40943,53156
40946,53172
40971,53189
40963,53189
40975,53226
40973,53226
40968,53254
40981,53279
40995,53289
40998,53325
41019,53339
41017,53382
41029,53392
41033,53410
41026,53417
41024,53419
41031,53415
41030,53400
41015,53408
41014,53376
41012,53382
40996,53358
41009,53359
40993,53349
41003,53345
40982,53358
41009,53348
41003,53349
41004,53364
40997,53367
41012,53375
41010,53391
41023,53403
41002,53414
41009,53433
41016,53436
41030,53441
41034,53464
41039,53468
41029,53498
41032,53512
41037,53513
41046,53517
41031,53521
41031,53537
41056,53551
41052,53552
41046,53560
41059,53577
41048,53599
41057,53580
41068,53564
41065,53608
41080,53615
41070,53617
41061,53624
41071,53628
41061,53651
41084,53654
41078,53658
41070,53668
41097,53663
41059,53673
41080,53688
41078,53682
41094,53706
41085,53741
41071,53714
41082,53692
41093,53706
41090,53734
41092,53730
41086,53749
41102,53754
41086,53755
41086,53766
41089,53787
41111,53788
41125,53805
41134,53803
41107,53796
41073,53820
41073,53823
41089,53819
41124,53827
41116,53842
41097,53824
41084,53820
41076,53752
41047,53660
41015,53527
40972,53382
40935,53260
40917,53166
40899,53095
40891,53031
40872,53004
40876,52986
40878,52984
40868,52981
40885,52995
40891,53026
40900,53046
40898,53061
40913,53101
40919,53120
40931,53142
40935,53148
40925,53171
40930,53202
40941,53211
40955,53211
40951,53228
40958,53246
40974,53269
40951,53284
40983,53319
40995,53333
40988,53353
40974,53367
41000,53381
41004,53395
40993,53393
41002,53389
40995,53384
40992,53363
40986,53361
40983,53360
40974,53332
40969,53341
40976,53327
40991,53331
40982,53328
40974,53343
40976,53346
40993,53355
40982,53369
40988,53372
40990,53377
40977,53395
40994,53422
40997,53420
41001,53438
41000,53450
41005,53469
41015,53471
41010,53474
41014,53471
41021,53510
41025,53525
41017,53524
41025,53527
41024,53547
41036,53569
41034,53563
41044,53572
41031,53564
41029,53597
41040,53588
41043,53607
41041,53617
41045,53617
41048,53638
41064,53641
41038,53651
41046,53645
41053,53652
41052,53659
41056,53676
41053,53676
41072,53688
41060,53695
41067,53696
41060,53704
41079,53724
41055,53744
41072,53741
41074,53736
41068,53754
41066,53749
41065,53767
41072,53769
41093,53780
41068,53772
41076,53770
41085,53798
41081,53804
41088,53790
41081,53790
41086,53827
41083,53824
41087,53833
41085,53838
41080,53849
41087,53860
41078,53852
41090,53875
41086,53869
41082,53853
41072,53789
41037,53712
41015,53598
40959,53437
40939,53309
40897,53209
40889,53113
40869,53081
40876,53033
40861,53043
40874,53036
40874,53062
40878,53056
40894,53086
40889,53105
40896,53125
40918,53154
40922,53194
40942,53232
40935,53236
40944,53266
40957,53290
40963,53308
40957,53331
40967,53339
40969,53342
40968,53374
40992,53412
40997,53436
41024,53447
41004,53473
41008,53493
41015,53504
41015,53489
40989,53483
40999,53481
40998,53468
40990,53459
40980,53455
40985,53436
40976,53421
40982,53420
40964,53409
40968,53414
40975,53396
40977,53408
40965,53429
40985,53421
40982,53435
40992,53442
40987,53447
40980,53473
41010,53499
40998,53511
40991,53511
41022,53527
41021,53549
41018,53547
41012,53557
41013,53582
41013,53580
41004,53588
41018,53596
41032,53601
41020,53622
41023,53606
41028,53629
41040,53639
41030,53639
41037,53664
41052,53664
41042,53676
41054,53681
41042,53695
41053,53688
41043,53712
41041,53700
41057,53724
41058,53736
41036,53732
41047,53756
41046,53755
41051,53761
41055,53761
41068,53763
41049,53769
41063,53776
41070,53785
41059,53785
41071,53801
41065,53806
41076,53807
41084,53820
41055,53822
41060,53845
41066,53837
41047,53850
41070,53872
41081,53862
41071,53866
41066,53851
41060,53830
41045,53750
41001,53656
40966,53543
40929,53386
40909,53269
40891,53196
40856,53116
40850,53093
40846,53067
40861,53065
40863,53079
40861,53074
40889,53083
40888,53117
40881,53175
40902,53189
40916,53186
40922,53223
40933,53278
40947,53310
40942,53314
40944,53315
40952,53339
40961,53364
40950,53388
41002,53414
40994,53449
40978,53467
40977,53498
40984,53506
40979,53505
40983,53524
40989,53520
40998,53504
40990,53518
40981,53491
40968,53478
40986,53468
40970,53463
40981,53455
40976,53447
40959,53444
40970,53434
40981,53446
40985,53466
40983,53459
40993,53465
40978,53483
40973,53501
40975,53514
40999,53529
40979,53543
40989,53553
40994,53577
41012,53601
41002,53586
41006,53600
41019,53605
41014,53623
41026,53644
41025,53651
41015,53664
41030,53666
41017,53673
41022,53682
41017,53699
41048,53703
41030,53708
41037,53727
41040,53719
41032,53732
41036,53742
41039,53756
41042,53753
41043,53768
41046,53756
41050,53784
41037,53779
41046,53793
41049,53807
41044,53812
41049,53803
41046,53821
41066,53819
41048,53827
41055,53847
41048,53847
41058,53836
41055,53859
41056,53859
41059,53872
41064,53866
41062,53889
41074,53892
41062,53892
41059,53901
41074,53914
41054,53918
41066,53913
41057,53892
41052,53848
41013,53750
40976,53614
40953,53471
40905,53336
40879,53245
40856,53168
40841,53117
40859,53081
40837,53075
40838,53069
40841,53068
40862,53098
40877,53116
40866,53135
40866,53165
40886,53192
40896,53215
40892,53239
40902,53280
40913,53281
40920,53305
40931,53325
40940,53341
40922,53352
40951,53378
40947,53393
40951,53409
40951,53446
40952,53465
40956,53481
40984,53482
40972,53518
40971,53518
40975,53506
40962,53512
40968,53508
40955,53499
40964,53486
40956,53473
40967,53446
40965,53450
40938,53449
40940,53447
40965,53446
40944,53449
40956,53468
40952,53480
40942,53473
40951,53480
40958,53498
40962,53501
40970,53513
40982,53539
40977,53537
40974,53558
40968,53586
40983,53583
40986,53598
40993,53607
40990,53622
40990,53633
41005,53654
41001,53642
41008,53656
40986,53679
40983,53681
41014,53674
40998,53696
41002,53697
40999,53718
41027,53727
41012,53732
41004,53726
41024,53742
41016,53747
41015,53763
41011,53768
41010,53778
41025,53789
41032,53782
41022,53786
41024,53800
41032,53812
41013,53816
41032,53813
41045,53829
41018,53831
41030,53831
41022,53862
41029,53851
41038,53866
41026,53870
41030,53878
41030,53895
41026,53890
41025,53892
41042,53896
41048,53912
41047,53902
41031,53882
41028,53870
41009,53801
40984,53694
40926,53572
40900,53436
40861,53316
40857,53231
40840,53162
40831,53120
40826,53114
40822,53099
40818,53123
40833,53126
40844,53145
40842,53196
40861,53215
40875,53239
40880,53269
40896,53293
40908,53315
40902,53334
40918,53360
40917,53401
40931,53397
40931,53421
40933,53439
40952,53453
40955,53499
40952,53513
40969,53523
40963,53551
40971,53583
40969,53587
40954,53596
40990,53579
40954,53558
40946,53555
40940,53542
40935,53524
40943,53514
40941,53506
40933,53488
40923,53496
40936,53483
40937,53489
40927,53487
40937,53512
40938,53513
40953,53521
40951,53476
40967,53543
40958,53552
40946,53568
40941,53579
40968,53596
40961,53609
40959,53631
40972,53626
40971,53638
40986,53652
40971,53660
40995,53682
40986,53694
40988,53701
40984,53745
41002,53742
40995,53730
40994,53714
40990,53748
40993,53746
40984,53754
41000,53777
41004,53768
41008,53785
41008,53778
41008,53819
41019,53808
41034,53811
40999,53812
41008,53811
40978,53813
40999,53818
40992,53838
41015,53844
41015,53856
41000,53861
41024,53876
41028,53873
41029,53882
41010,53905
41021,53908
41015,53915
41045,53910
41025,53920
41004,53904
41014,53869
40993,53801
40967,53704
40922,53565
40885,53417
40862,53310
40839,53228
40815,53156
40815,53125
40813,53095
40807,53095
40810,53102
40810,53111
40820,53134
40828,53157
40827,53180
40858,53198
40847,53218
40876,53234
40858,53273
40876,53295
40881,53308
40875,53319
40873,53333
40879,53354
40886,53359
40896,53394
40902,53417
40917,53441
40915,53450
40918,53501
40928,53490
40941,53519
40932,53532
40941,53517
40932,53528
40923,53514
40934,53516
40925,53503
40910,53478
40907,53475
40900,53462
40916,53452
40896,53439
40886,53449
40899,53444
40913,53467
40907,53475
40912,53475
40911,53490
40914,53507
40917,53509
40917,53528
40920,53539
40923,53552
40922,53558
40931,53588
40936,53585
40943,53589
40940,53626
40943,53612
40951,53629
40953,53657
40943,53653
40953,53670
40965,53683
40960,53690
40972,53697
40963,53691
40953,53719
40954,53708
40985,53731
40971,53736
40968,53745
40953,53751
40961,53754
40979,53761
40974,53777
40975,53789
40976,53788
40990,53803
40981,53800
40976,53789
40991,53798
40984,53805
40984,53816
40986,53834
40989,53818
40985,53850
40974,53859
40989,53853
41009,53866
40991,53862
40985,53882
41002,53882
41000,53901
40986,53895
41003,53916
41004,53934
40992,53931
40998,53923
41010,53885
40976,53823
40923,53738
40909,53588
40878,53455
40829,53334
40813,53234
40790,53169
40775,53119
40782,53101
40778,53082
40770,53091
40782,53088
40781,53106
40799,53130
40809,53144
40805,53152
40820,53204
40823,53228
40823,53250
40838,53272
40835,53285
40853,53299
40850,53309
40865,53310
40876,53341
40866,53365
40866,53362
40875,53404
40873,53436
40897,53456
40903,53489
40893,53482
40903,53506
40890,53505
40886,53500
40913,53492
40893,53489
40891,53466
40895,53458
40877,53452
40873,53444
40877,53434
40868,53416
40879,53420
40885,53427
40878,53446
40877,53430
40881,53459
40880,53451
40876,53460
40881,53492
40889,53502
40888,53486
40893,53520
40889,53532
40904,53545
40902,53562
40903,53572
40917,53573
40906,53583
40909,53584
40913,53620
40926,53612
40932,53631
40915,53642
40927,53628
40923,53651
40918,53665
40932,53683
40928,53694
40920,53692
40934,53683
40924,53708
40934,53707
40929,53715
40935,53739
40948,53740
40948,53739
40948,53752
40949,53757
40950,53772
40950,53789
40936,53792
40945,53789
40964,53799
40947,53817
40953,53804
40964,53815
40949,53826
40965,53836
40942,53832
40963,53837
40971,53855
40971,53855
40975,53860
40964,53866
40964,53876
40974,53883
40973,53887
40983,53884
40958,53896
40966,53908
40968,53881
40959,53924
40967,53915
40960,53886
40965,53836
40935,53770
40893,53653
40865,53500
40813,53380
40813,53275
40799,53196
40771,53170
40751,53129
40759,53116
40772,53145
40778,53187
40791,53147
40795,53169
40796,53195
40804,53255
40817,53257
40836,53308
40830,53321
40829,53355
40850,53351
40857,53377
40888,53396
40865,53417
40864,53449
40866,53478
40850,53493
40873,53520
40875,53538
40896,53559
40891,53550
40900,53564
40896,53573
40897,53556
40887,53538
40888,53549
40887,53511
40866,53506
40868,53496
40849,53473
40856,53470
40863,53470
40840,53457
40862,53470
40864,53455
40863,53474
40866,53486
40870,53482
40878,53506
40872,53524
40874,53522
40869,53552
40880,53566
40889,53590
40892,53580
40900,53608
40891,53617
40902,53622
40897,53633
40905,53665
40902,53647
40907,53669
40911,53672
40909,53674
40912,53697
40921,53703
40913,53709
40920,53719
40918,53735
40916,53736
40919,53731
40934,53743
40924,53747
40917,53756
40914,53766
40934,53797
40930,53778
40937,53796
40928,53807
40929,53806
40934,53804
40940,53832
40934,53805
40939,53840
40950,53841
40940,53835
40941,53836
40953,53861
40951,53874
40949,53887
40960,53873
40947,53887
40947,53879
40956,53899
40965,53896
40960,53898
40960,53908
40943,53894
40935,53854
40919,53771
40878,53662
40844,53511
40810,53375
40773,53282
40761,53204
40760,53150
40741,53117
40747,53100
40728,53095
40746,53083
40750,53115
40753,53125
40778,53166
40758,53173
40773,53203
40781,53233
40800,53238
40795,53263
40806,53286
40802,53312
40809,53338
40815,53333
40812,53359
40816,53363
40833,53384
40823,53407
40853,53440
40847,53460
40847,53475
40877,53507
40861,53498
40867,53516
40866,53510
40864,53513
40846,53489
40857,53496
40839,53475
40850,53459
40835,53454
40835,53444
40842,53433
40833,53423
40835,53448
40828,53445
40846,53443
40845,53465
40835,53474
40837,53483
40857,53504
40840,53512
40869,53516
40850,53523
40862,53544
40861,53552
40854,53561
40862,53576
40878,53608
40891,53603
40864,53608
40884,53634
40878,53637
40894,53655
40871,53656
40879,53652
40902,53666
40894,53689
40899,53679
40887,53698
40896,53709
40872,53719
40901,53727
40907,53731
40895,53738
40889,53740
40897,53746
40906,53767
40909,53782
40908,53771
40911,53787
40912,53789
40915,53784
40919,53803
40926,53820
40916,53818
40911,53828
40918,53830
40929,53842
40920,53836
40940,53843
40922,53855
40913,53872
40927,53862
40927,53878
40924,53881
40920,53887
40932,53894
40944,53912
40938,53897
40933,53913
40924,53949
40949,53928
40947,53911
40920,53877
40915,53802
40879,53727
40823,53578
40792,53434
40762,53333
40732,53238
40719,53169
40722,53129
40712,53099
40704,53078
40706,53114
40717,53109
40725,53125
40729,53137
40731,53164
40749,53195
40751,53223
40768,53247
40767,53268
40778,53290
40775,53299
40778,53323
40779,53306
40797,53337
40790,53350
40810,53378
40812,53385
40802,53424
40820,53450
40831,53471
40822,53473
40838,53487
40841,53509
40826,53512
40830,53507
40833,53506
40819,53496
40815,53467
40819,53482
40807,53460
40814,53436
40820,53434
40805,53445
40804,53426
40802,53433
40803,53435
40816,53454
40822,53439
40813,53465
40813,53463
40829,53478
40816,53494
40830,53515
40836,53518
40817,53547
40830,53545
40840,53567
40852,53584
40836,53578
40846,53583
40875,53578
40858,53607
40864,53620
40861,53658
40858,53657
40858,53658
40875,53682
40877,53679
40893,53693
40905,53707
40882,53703
40861,53738
40875,53741
40857,53748
40860,53742
40879,53762
40892,53762
40886,53751
40882,53790
40888,53775
40893,53794
40890,53801
40894,53808
40888,53801
40893,53827
40901,53806
40891,53834
40895,53828
40898,53837
40903,53839
40909,53843
40899,53855
40905,53852
40900,53871
40900,53874
40892,53878
40911,53889
40914,53899
40898,53889
40902,53906
40911,53918
40908,53917
40905,53921
40930,53933
40909,53943
40913,53912
40900,53909
40894,53865
40874,53779
40822,53652
40793,53522
40766,53396
40735,53297
40718,53227
40708,53191
40687,53137
40697,53137
40707,53147
40703,53152
40715,53172
40720,53179
40730,53239
40756,53245
40757,53270
40760,53310
40766,53322
40759,53335
40779,53363
40770,53389
40795,53406
40808,53415
40811,53447
40797,53469
40814,53506
40817,53521
40807,53548
40826,53562
40836,53576
40830,53578
40833,53595
40823,53595
40829,53584
40831,53574
40819,53566
40823,53530
40808,53541
40807,53515
40800,53502
40809,53480
40792,53488
40806,53485
40808,53491
40796,53506
40805,53500
40812,53505
40803,53513
40823,53540
40812,53532
40816,53536
40826,53585
40830,53565
40826,53600
40833,53595
40817,53618
40847,53628
40844,53647
40829,53644
40829,53668
40855,53674
40842,53675
40845,53697
40849,53693
40860,53706
40856,53717
40853,53720
40865,53733
40853,53745
40872,53751
40854,53748
40876,53765
40868,53784
40867,53780
40866,53777
40886,53805
40882,53800
40871,53802
40880,53807
40876,53824
40883,53825
40886,53826
40890,53838
40878,53853
40872,53850
40896,53863
40879,53868
40882,53871
40899,53883
40907,53886
40870,53885
40894,53905
40893,53923
40901,53928
40885,53906
40881,53935
40906,53918
40875,53913
40865,53870
40860,53788
40825,53666
40779,53536
40747,53393
40722,53290
40708,53228
40686,53171
40672,53136
40680,53110
40669,53116
40682,53127
40699,53140
40701,53166
40706,53185
40702,53208
40725,53231
40737,53245
40733,53262
40724,53300
40738,53328
40744,53333
40749,53338
40761,53359
40769,53394
40775,53390
40775,53419
40787,53441
40785,53462
40795,53487
40807,53503
40793,53541
40810,53530
40794,53542
40797,53544
40797,53530
40783,53521
40790,53509
40792,53500
40767,53497
40773,53467
40757,53462
40787,53464
40766,53466
40773,53469
40780,53477
40771,53475
40784,53497
40787,53475
40782,53498
40787,53507
40789,53525
40796,53546
40797,53549
40800,53553
40798,53573
40818,53588
40801,53583
40805,53615
40815,53612
40813,53630
40820,53644
40813,53636
40820,53645
40824,53667
40842,53666
40818,53688
40835,53690
40837,53712
40845,53714
40846,53730
40848,53719
40834,53740
40840,53750
40838,53749
40832,53765
40851,53765
40843,53775
40856,53790
40834,53805
40856,53802
40865,53808
40867,53828
40861,53830
40854,53834
40875,53828
40859,53836
40871,53853
40858,53843
40873,53859
40868,53856
40874,53862
40865,53882
40864,53879
40871,53888
40863,53881
40869,53889
40843,53903
40864,53910
40865,53929
40876,53944
40880,53968
40887,53899
40864,53905
40869,53905
40835,53839
40812,53732
40773,53599
40741,53452
40719,53345
40680,53250
40666,53174
40675,53142
40681,53130
40650,53106
40641,53103
40656,53119
40650,53127
40677,53140
40668,53162
40677,53195
40703,53210
40712,53231
40711,53269
40702,53289
40710,53302
40705,53314
40731,53320
40731,53314
40716,53360
40739,53383
40737,53383
40756,53411
40767,53433
40770,53457
40762,53478
40767,53480
40774,53496
40763,53514
40761,53505
40768,53513
40758,53482
40755,53493
40748,53463
40755,53464
40758,53444
40746,53443
40757,53439
40737,53449
40751,53459
40758,53446
40743,53452
40761,53470
40759,53468
40751,53469
40756,53499
40774,53502
40764,53502
40783,53526
40768,53527
40775,53532
40768,53558
40780,53565
40782,53562
40791,53582
40786,53593
40780,53613
40796,53613
40795,53639
40800,53636
40805,53646
40807,53644
40810,53668
40796,53665
40802,53687
40803,53671
40809,53678
40812,53701
40823,53714
40810,53715
40819,53721
40832,53737
40830,53731
40803,53751
40831,53764
40819,53761
40825,53775
40823,53776
40835,53777
40836,53796
40836,53786
40840,53795
40811,53803
40827,53825
40844,53815
40832,53820
40847,53824
40827,53851
40842,53849
40840,53841
40849,53847
40841,53853
40841,53872
40857,53877
40852,53888
40837,53881
40848,53891
40844,53896
40841,53898
40853,53919
40828,53884
40832,53856
40790,53784
40777,53689
40748,53545
40699,53410
40685,53305
40675,53222
40641,53162
40638,53130
40633,53117
40645,53113
40626,53136
40642,53138
40639,53175
40656,53182
40676,53221
40685,53248
40699,53266
40696,53292
40707,53314
40714,53337
40712,53369
40723,53385
40736,53381
40723,53412
40738,53439
40737,53456
40753,53468
40765,53508
40757,53534
40752,53540
40770,53535
40782,53552
40756,53538
40764,53556
40758,53529
40758,53537
40760,53513
40745,53494
40735,53476
40755,53475
40745,53471
40732,53463
40725,53455
40733,53467
40742,53470
40738,53460
40744,53477
40738,53495
40748,53499
40757,53494
40737,53522
40745,53521
40748,53545
40763,53559
40767,53565
40762,53577
40769,53566
40768,53577
40772,53608
40763,53603
40775,53621
40781,53630
40778,53623
40781,53653
40780,53657
40778,53640
40787,53668
40792,53669
40789,53673
40782,53700
40791,53687
40793,53689
40789,53711
40795,53722
40802,53727
40789,53735
40794,53724
40808,53720
40796,53762
40822,53750
40823,53773
40816,53772
40814,53780
40826,53761
40827,53791
40826,53813
40821,53807
40820,53830
40826,53837
40830,53839
40805,53833
40808,53829
40812,53792
40786,53726
40759,53621
40720,53493
40666,53376
40656,53275
40657,53207
40636,53137
40626,53105
40630,53082
40610,53085
40606,53077
40614,53102
40633,53111
40638,53131
40643,53171
40654,53171
40661,53201
40657,53224
40662,53240
40676,53250
40685,53278
40669,53277
40691,53316
40696,53314
40690,53334
40707,53356
40712,53385
40726,53388
40726,53435
40724,53442
40725,53461
40733,53478
40741,53458
40746,53475
40721,53469
40733,53460
40730,53444
40720,53443
40716,53426
40717,53415
40725,53412
40709,53392
40724,53413
40721,53419
40716,53428
40715,53430
40717,53438
40728,53492
40723,53463
40742,53462
40737,53467
40750,53515
40754,53528
40749,53545
40760,53549
40754,53570
40754,53574
40752,53590
40774,53601
40762,53621
40794,53623
40765,53638
40750,53635
40748,53650
40771,53645
40773,53663
40761,53661
40779,53670
40774,53679
40787,53690
40782,53709
40779,53700
40768,53715
40781,53720
40786,53718
40787,53724
40792,53744
40785,53745
40781,53748
40798,53757
40807,53762
40793,53768
40809,53800
40806,53820
40813,53810
40806,53814
40827,53837
40804,53843
40827,53862
40821,53847
40805,53855
40811,53843
40795,53838
40785,53763
40759,53675
40702,53511
40676,53391
40643,53264
40630,53183
40612,53118
40601,53068
40588,53036
40593,53043
40592,53035
40614,53064
40588,53065
40618,53092
40630,53109
40616,53127
40632,53150
40643,53179
40642,53194
40637,53212
40650,53217
40668,53224
40652,53254
40662,53267
40671,53271
40670,53293
40689,53324
40697,53341
40695,53367
40700,53400
40711,53405
40702,53428
40693,53416
40705,53432
40715,53421
40713,53425
40700,53406
40699,53407
40681,53394
40683,53371
40676,53352
40682,53361
40682,53348
40696,53363
40681,53364
40691,53379
40684,53379
40702,53380
40686,53398
40699,53403
40699,53411
40713,53419
40695,53450
40701,53461
40698,53470
40723,53477
40720,53490
40720,53513
40722,53529
40731,53528
40735,53553
40742,53537
40746,53564
40740,53574
40743,53582
40758,53581
40748,53610
40749,53623
40765,53619
40745,53626
40758,53638
40788,53656
40750,53658
40776,53675
40772,53675
40770,53673
40762,53682
40771,53707
40782,53710
40780,53729
40777,53730
40773,53733
40773,53743
40770,53751
40778,53750
40777,53759
40776,53764
40767,53767
40787,53785
40777,53791
40797,53781
40787,53782
40797,53799
40794,53812
40800,53810
40794,53816
40790,53819
40795,53843
40792,53826
40799,53845
40797,53842
40808,53855
40798,53864
40796,53874
40812,53871
40800,53878
40799,53884
40807,53887
40804,53873
40806,53869
40785,53834
40744,53725
40720,53610
40689,53470
40653,53323
40630,53233
40604,53162
40590,53127
40594,53083
40579,53068
40586,53077
40581,53090
40601,53083
40602,53116
40615,53135
40630,53144
40619,53178
40639,53222
40638,53244
40658,53258
40640,53284
40651,53285
40674,53297
40672,53324
40676,53341
40695,53345
40666,53381
40695,53412
40714,53438
40716,53464
40709,53468
40711,53501
40721,53511
40710,53502
40713,53512
40706,53503
40710,53492
40706,53480
40710,53462
40692,53445
40683,53448
40703,53437
40698,53453
40705,53451
40697,53440
40697,53441
40685,53446
40715,53448
40710,53478
40709,53489
40710,53495
40708,53515
40715,53507
40721,53516
40728,53528
40719,53553
40731,53554
40730,53577
40734,53570
40748,53586
40732,53599
40739,53593
40742,53614
40746,53627
40739,53626
40746,53635
40762,53652
40743,53663
40749,53668
40761,53669
40754,53682
40753,53684
40742,53696
40775,53698
40770,53724
40771,53727
40766,53733
40769,53727
40762,53749
40764,53720
40760,53774
40787,53773
40777,53775
40784,53782
40785,53778
40783,53784
40787,53798
40783,53809
40798,53811
40812,53808
40785,53820
40787,53843
40787,53843
40791,53856
40802,53897
40804,53908
40806,53859
40793,53861
40793,53891
40799,53867
40790,53877
40780,53820
40756,53725
40727,53619
40677,53484
40641,53350
40646,53259
40629,53187
40600,53150
40588,53111
40561,53108
40571,53105
40568,53109
40608,53130
40608,53161
40614,53167
40612,53183
40633,53220
40642,53259
40643,53271
40642,53296
40659,53314
40673,53335
40675,53340
40667,53354
40685,53387
40682,53410
40701,53443
40697,53445
40709,53476
40708,53493
40706,53528
40717,53532
40718,53529
40709,53534
40726,53541
40703,53529
40707,53517
40709,53496
40709,53500
40713,53480
40695,53466
40701,53461
40704,53452
40696,53461
40697,53469
40669,53470
40697,53497
40704,53499
40699,53485
40709,53507
40707,53530
40710,53545
40721,53556
40717,53557
40726,53564
40733,53588
40734,53596
40749,53599
40738,53625
40726,53635
40736,53639
40756,53661
40736,53666
40759,53671
40753,53671
40758,53703
40760,53700
40762,53710
40753,53721
40770,53717
40760,53741
40771,53757
40771,53744
40771,53765
40758,53762
40770,53768
40762,53780
40786,53782
40779,53789
40769,53806
40779,53814
40777,53804
40784,53825
40777,53817
40781,53813
40787,53842
40781,53837
40783,53847
40791,53849
40782,53851
40776,53878
40791,53881
40791,53878
40782,53890
40786,53892
40792,53895
40788,53903
40792,53918
40779,53902
40786,53918
40794,53942
40795,53917
40775,53907
40778,53818
40735,53712
40693,53579
40646,53433
40618,53307
40617,53257
40589,53195
40591,53137
40577,53113
40567,53108
40581,53106
40584,53104
40603,53114
40597,53154
40612,53179
40609,53195
40628,53220
40624,53257
40629,53249
40645,53278
40635,53283
40633,53321
40661,53323
40655,53341
40654,53372
40665,53378
40661,53409
40685,53425
40689,53437
40704,53448
40708,53483
40693,53491
40707,53515
40699,53506
40695,53500
40683,53501
40699,53488
40692,53487
40683,53479
40681,53461
40677,53458
40671,53445
40692,53454
40682,53452
40676,53449
40697,53460
40681,53473
40705,53475
40701,53482
40694,53504
40701,53521
40693,53539
40697,53539
40705,53558
40709,53574
40722,53582
40717,53588
40707,53595
40711,53609
40731,53621
40734,53638
40742,53658
40720,53645
40733,53654
40734,53666
40745,53689
40735,53692
40739,53703
40743,53714
40730,53721
40751,53723
40751,53729
40752,53722
40758,53725
40759,53758
40763,53779
40754,53767
40762,53767
40753,53805
40770,53781
40771,53795
40761,53803
40777,53798
40773,53832
40763,53823
40783,53839
40767,53839
40779,53857
40777,53859
40780,53862
40783,53866
40774,53881
40766,53878
40766,53884
40784,53893
40786,53896
40773,53915
40788,53907
40776,53916
40779,53929
40781,53926
40780,53939
40778,53939
40795,53971
40797,53954
40781,53976
40782,53981
40791,53978
40795,53978
40789,53970
40787,53967
40778,53921
40759,53853
40724,53754
40689,53600
40662,53460
40626,53356
40596,53265
40591,53211
40572,53188
40569,53171
40576,53174
40580,53185
40596,53186
40590,53217
40607,53206
40628,53267
40623,53298
40629,53342
40652,53345
40642,53378
40650,53391
40647,53421
40680,53443
40670,53463
40691,53483
40682,53481
40699,53525
40693,53539
40690,53575
40795,53978
40718,53619
40710,53660
40717,53655
40722,53625
40714,53621
40710,53633
40720,53626
40706,53598
40705,53612
40723,53592
40699,53578
40703,53579
40720,53560
40700,53562
40703,53582
40694,53564
40670,53600
40687,53600
40698,53602
40699,53621
40715,53638
40704,53655
40724,53651
40724,53656
40721,53693
40741,53685
40746,53704
40740,53720
40738,53724
40732,53716
40743,53722
40729,53755
40737,53773
40743,53764
40750,53779
40756,53778
40758,53790
40758,53811
40757,53793
40747,53828
40760,53821
40761,53825
40762,53847
40743,53843
40754,53846
40757,53859
40775,53855
40767,53875
40770,53870
40761,53881
40747,53873
40767,53874
40775,53888
40769,53899
40757,53913
40780,53909
40773,53904
40785,53922
40783,53922
40786,53937
40767,53928
40780,53954
40780,53966
40780,53971
40785,53973
40782,53992
40788,54005
40783,53977
40796,53991
40785,54002
40771,53955
40770,53922
40744,53823
40710,53714
40673,53579
40640,53472
40613,53365
40608,53316
40591,53255
40586,53235
40580,53216
40596,53229
40612,53241
40609,53258
40619,53295
40624,53300
40636,53333
40640,53365
40651,53400
40658,53422
40674,53446
40683,53474
40689,53493
40683,53505
40687,53526
40698,53560
40705,53583
40728,53602
40718,53632
40715,53657
40709,53672
40721,53681
40744,53706
40734,53705
40727,53709
40725,53697
40725,53701
40732,53679
40708,53652
40713,53656
40708,53637
40705,53645
40707,53621
40704,53635
40702,53630
40707,53630
40694,53651
40718,53649
40707,53659
40719,53669
40706,53682
40719,53692
40711,53698
40741,53716
40727,53739
40738,53744
40722,53753
40741,53754
40731,53785
40748,53798
40750,53799
40745,53804
40764,53814
40747,53816
40759,53846
40744,53854
40769,53858
40743,53874
40761,53860
40756,53868
40767,53883
40776,53895
40759,53901
40767,53891
40755,53900
40784,53916
40759,53910
40762,53920
40763,53919
40776,53912
40775,53954
40755,53952
40770,53968
40772,53957
40771,53957
40774,53962
40770,53974
40779,53987
40788,53981
40777,53990
40794,54017
40782,54018
40768,54018
40782,54023
40775,54023
40775,53996
40748,53961
40746,53898
40704,53758
40670,53642
40635,53502
40601,53395
40586,53335
40586,53258
40567,53216
40550,53222
40571,53214
40566,53221
40565,53234
40574,53253
40590,53292
40594,53292
40606,53313
40616,53338
40614,53367
40628,53371
40627,53396
40642,53428
40650,53427
40650,53451
40642,53467
40646,53483
40656,53503
40674,53511
40657,53548
40695,53567
40676,53592
40693,53624
40704,53610
40693,53640
40695,53649
40687,53643
40686,53634
40681,53610
40676,53611
40676,53590
40672,53589
40665,53579
40669,53569
40679,53563
40659,53577
40677,53575
40677,53598
40681,53584
40676,53597
40685,53600
40674,53620
40689,53620
40692,53640
40693,53660
40704,53672
40698,53679
40694,53692
40702,53710
40708,53736
40704,53727
40713,53740
40713,53745
40723,53778
40718,53773
40725,53784
40716,53786
40729,53799
40724,53824
40733,53840
40730,53832
40727,53823
40741,53832
40743,53858
40741,53823
40743,53866
40744,53860
40749,53865
40743,53878
40743,53879
40748,53880
40751,53907
40748,53909
40734,53897
40739,53917
40752,53910
40744,53924
40744,53965
40745,53954
40748,53953
40762,53927
40767,53943
40753,53945
40754,53987
40765,53994
40757,53993
40759,53963
40739,53921
40717,53859
40701,53755
40677,53615
40639,53475
40577,53383
40574,53293
40741,53832
40530,53212
40531,53199
40550,53190
40546,53206
40550,53214
40547,53234
40563,53261
40572,53273
40571,53297
40584,53326
40606,53357
40610,53372
40601,53391
40616,53407
40615,53420
40627,53438
40618,53452
40637,53465
40628,53489
40636,53514
40650,53541
40654,53573
40653,53589
40668,53604
40670,53606
40658,53612
40675,53609
40655,53591
40662,53586
40660,53574
40658,53562
40634,53549
40647,53548
40628,53539
40638,53522
40633,53520
40632,53534
40645,53526
40643,53537
40639,53532
40646,53554
40657,53555
40664,53569
40650,53594
40666,53610
40656,53627
40662,53634
40675,53629
40682,53638
40675,53651
40671,53666
40667,53689
40686,53675
40673,53690
40684,53701
40684,53711
40691,53731
40680,53727
40680,53734
40694,53736
40677,53738
40698,53758
40688,53757
40693,53778
40688,53764
40703,53761
40701,53787
40707,53786
40699,53780
40700,53816
40701,53806
40703,53820
40706,53810
40698,53814
40694,53833
40704,53851
40698,53842
40716,53851
40711,53855
40736,53870
40721,53880
40726,53890
40724,53901
40724,53898
40715,53906
40720,53905
40729,53919
40713,53907
40712,53879
40700,53827
40664,53745
40640,53617
40582,53486
40565,53367
40550,53288
40521,53206
40520,53153
40512,53114
40501,53113
40497,53099
40515,53116
40509,53141
40525,53144
40541,53159
40526,53203
40540,53240
40557,53233
40555,53257
40553,53294
40557,53314
40582,53323
40572,53342
40557,53372
40586,53382
40599,53405
40616,53412
40606,53465
40626,53489
40609,53503
40630,53522
40624,53528
40603,53511
40626,53512
40627,53518
40614,53500
40616,53475
40601,53477
40596,53454
40586,53452
40587,53423
40581,53431
40593,53429
40599,53425
40592,53423
40597,53436
40598,53444
40592,53457
40608,53468
40603,53481
40611,53477
40611,53496
40618,53521
40627,53517
40617,53539
40628,53548
40638,53554
40622,53575
40629,53567
40636,53600
40632,53603
40632,53617
40633,53618
40649,53630
40641,53626
40651,53651
40647,53654
40667,53660
40645,53653
40648,53655
40654,53676
40655,53687
40648,53686
40661,53700
40665,53703
40657,53699
40662,53717
40665,53724
40662,53736
40662,53746
40673,53742
40683,53765
40679,53771
40686,53767
40671,53769
40675,53781
40670,53781
40657,53780
40683,53796
40682,53803
40686,53801
40678,53802
40683,53820
40687,53819
40678,53835
40679,53837
40687,53850
40690,53854
40672,53858
40685,53839
40673,53811
40651,53766
40623,53630
40559,53464
40531,53331
40492,53214
40491,53105
40463,53036
40447,53001
40441,52975
40428,52952
40428,52948
40429,52953
40436,52973
40453,52979
40432,53005
40463,53004
40455,53024
40476,53033
40457,53055
40473,53070
40476,53084
40482,53092
40480,53107
40490,53124
40484,53122
40493,53130
40495,53152
40494,53174
40510,53215
40516,53209
40526,53245
40532,53274
40522,53263
40527,53267
40522,53271
40521,53265
40514,53250
40491,53252
40508,53231
40515,53226
40488,53196
40504,53191
40503,53188
40513,53192
40498,53235
40509,53244
40499,53217
40524,53199
40515,53249
40515,53251
40517,53260
40530,53273
40516,53271
40530,53305
40518,53305
40529,53316
40548,53330
40548,53340
40552,53361
40544,53360
40532,53386
40537,53380
40543,53400
40553,53400
40565,53416
40554,53424
40558,53437
40559,53443
40565,53447
40573,53466
40577,53468
40569,53484
40585,53477
40584,53503
40571,53512
40564,53505
40583,53518
40590,53514
40580,53545
40587,53546
40585,53545
40588,53565
40601,53578
40595,53562
40593,53565
40590,53579
40592,53590
40586,53585
40598,53604
40605,53617
40617,53604
40598,53630
40600,53629
40607,53635
40595,53643
40618,53645
40592,53652
40597,53646
40619,53661
40607,53675
40614,53664
40610,53676
40620,53691
40627,53701
40636,53692
40611,53715
40614,53720
40630,53732
40627,53730
40631,53732
40632,53744
40636,53754
40638,53740
40619,53739
40600,53715
40581,53641
40564,53523
40509,53354
40472,53224
40445,53098
40415,52978
40384,52935
40373,52890
40351,52840
40361,52832
40355,52814
40365,52828
40363,52845
40371,52835
40399,52840
40372,52863
40379,52900
40415,52929
40398,52936
40415,52945
40411,52972
40414,52975
40412,52988
40436,53000
40425,53026
40434,53027
40445,53065
40464,53073
40454,53110
40451,53127
40460,53127
40469,53154
40469,53147
40459,53149
40474,53147
40457,53128
40459,53127
40452,53111
40453,53091
40444,53079
40443,53066
40441,53074
40443,53057
40432,53073
40441,53070
40454,53070
40435,53073
40447,53081
40452,53093
40448,53097
40455,53109
40460,53121
40461,53128
40477,53153
40470,53162
40471,53172
40469,53184
40478,53187
40475,53200
40492,53193
40492,53213
40495,53228
40487,53242
40484,53239
40484,53256
40487,53256
40500,53280
40504,53270
40493,53294
40495,53312
40499,53301
40506,53309
40499,53325
40498,53344
40510,53344
40523,53355
40526,53361
40518,53367
40518,53366
40515,53373
40533,53388
40528,53396
40532,53391
40527,53419
40517,53418
40528,53432
40541,53415
40543,53437
40533,53445
40542,53457
40540,53457
40551,53463
40546,53470
40544,53481
40551,53475
40546,53476
40550,53478
40560,53500
40559,53499
40549,53508
40565,53512
40570,53534
40571,53555
40563,53535
40567,53560
40567,53585
40571,53580
40563,53578
40568,53603
40568,53530
40536,53486
40504,53360
40454,53214
40432,53088
40394,52964
40365,52850
40352,52799
40328,52745
40321,52717
40332,52694
40317,52684
40332,52684
40318,52695
40332,52693
40331,52717
40337,52731
40365,52731
40349,52777
40357,52785
40355,52805
40360,52825
40366,52828
40383,52848
40379,52842
40385,52882
40388,52892
40391,52925
40400,52955
40406,52979
40432,53002
40417,53012
40419,53018
40419,53034
40425,53044
40430,53021
40411,53012
40422,53000
40413,52994
40408,52963
40382,52962
40410,52944
40392,52939
40408,52925
40411,52947
40409,52936
40405,52957
40412,52953
40403,52972
40414,52967
40418,52994
40423,52994
40407,52995
40424,53009
40439,53034
40433,53054
40441,53074
40450,53072
40440,53088
40447,53100
40446,53113
40461,53113
40463,53137
40452,53140
40464,53153
40464,53167
40483,53169
40468,53183
40480,53185
40470,53204
40455,53211
40488,53211
40487,53238
40476,53270
40469,53247
40483,53228
40485,53265
40494,53286
40485,53295
40500,53315
40493,53318
40506,53317
40508,53324
40525,53324
40517,53355
40532,53351
40532,53365
40510,53380
40441,53074
40509,53370
40526,53403
40535,53403
40528,53397
40536,53410
40530,53409
40545,53428
40533,53434
40525,53449
40535,53428
40532,53440
40533,53447
40545,53460
40532,53461
40552,53468
40554,53479
40549,53519
40551,53507
40551,53515
40558,53532
40557,53529
40550,53535
40560,53519
40553,53533
40542,53493
40528,53394
40464,53245
40430,53098
40387,52963
40366,52835
40332,52750
40315,52686
40295,52652
40307,52604
40294,52588
40281,52569
40286,52578
40301,52588
40292,52603
40298,52614
40304,52641
40322,52656
40314,52678
40339,52694
40328,52693
40339,52699
40338,52740
40347,52735
40349,52755
40365,52777
40369,52769
40353,52802
40383,52822
40372,52860
40380,52862
40387,52889
40388,52897
40381,52911
40402,52922
40408,52918
40397,52904
40404,52902
40389,52874
40385,52881
40380,52853
40369,52858
40387,52840
40382,52836
40377,52856
40376,52842
40386,52845
40377,52865
40396,52864
40396,52872
40398,52889
40390,52909
40395,52911
40399,52929
40414,52926
40405,52954
40412,52970
40413,52984
40416,52982
40420,53006
40433,53018
40434,53030
40427,53049
40443,53042
40445,53052
40440,53083
40451,53099
40449,53116
40462,53099
40456,53106
40446,53131
40476,53126
40468,53142
40456,53145
40471,53161
40485,53169
40493,53197
40479,53187
40484,53196
40492,53215
40491,53229
40488,53228
40479,53226
40488,53223
40504,53256
40496,53267
40493,53268
40495,53282
40518,53297
40504,53297
40505,53302
40517,53321
40520,53326
40512,53322
40520,53332
40527,53331
40519,53338
40516,53361
40520,53360
40526,53361
40533,53365
40524,53387
40534,53400
40531,53399
40539,53426
40526,53412
40544,53415
40547,53445
40541,53432
40543,53450
40554,53456
40548,53464
40553,53471
40545,53464
40543,53446
40529,53402
40507,53323
40455,53180
40411,53024
40381,52914
40364,52791
40329,52724
40326,52656
40308,52611
40314,52581
40308,52581
40306,52588
40320,52586
40304,52599
40321,52616
40336,52653
40339,52687
40334,52696
40355,52720
40355,52744
40356,52756
40354,52787
40375,52783
40379,52809
40390,52815
40402,52834
40402,52872
40405,52893
40413,52925
40422,52950
40434,52955
40424,52965
40423,52980
40438,52987
40431,52985
40416,52981
40418,52942
40414,52936
40412,52943
40414,52911
40412,52904
40406,52871
40400,52879
40404,52864
40411,52870
40422,52887
40415,52897
40419,52906
40420,52915
40429,52921
40426,52935
40444,52955
40449,52955
40440,52980
40450,52988
40457,53011
40437,53007
40445,53008
40460,53043
40457,53049
40454,53058
40475,53078
40467,53080
40477,53081
40481,53109
40479,53113
40481,53113
40481,53136
40492,53143
40485,53160
40484,53177
40499,53176
40500,53176
40495,53210
40492,53207
40503,53211
40499,53220
40514,53249
40517,53242
40515,53239
40514,53266
40510,53254
40527,53271
40526,53297
40523,53293
40534,53312
40515,53312
40525,53310
40524,53339
40527,53316
40531,53342
40550,53344
40508,53341
40537,53364
40543,53369
40545,53397
40549,53402
40543,53361
40549,53379
40572,53389
40548,53433
40571,53435
40570,53433
40566,53434
40562,53421
40542,53388
40516,53315
40499,53179
40450,53047
40409,52931
40380,52811
40362,52713
40330,52656
40341,52620
40321,52580
40326,52567
40324,52561
40329,52571
40326,52583
40342,52601
40352,52615
40357,52625
40337,52653
40363,52677
40365,52705
40368,52705
40378,52733
40398,52733
40388,52748
40397,52773
40412,52785
40391,52800
40413,52822
40427,52850
40429,52878
40439,52896
40438,52920
40441,52928
40447,52947
40451,52956
40436,52924
40431,52917
40438,52902
40451,52897
40425,52898
40422,52866
40426,52860
40419,52858
40413,52858
40415,52857
40443,52863
40426,52873
40432,52900
40439,52893
40438,52903
40446,52914
40457,52942
40472,52948
40446,52951
40454,52966
40473,52990
40485,52980
40484,53007
40482,53017
40484,53030
40500,53042
40481,53052
40493,53081
40493,53075
40511,53094
40506,53104
40503,53103
40507,53119
40508,53135
40519,53143
40537,53153
40506,53166
40515,53177
40523,53174
40538,53199
40525,53190
40526,53203
40536,53199
40525,53237
40537,53225
40540,53241
40548,53257
40561,53252
40544,53271
40553,53283
40551,53285
40551,53294
40549,53315
40558,53314
40555,53329
40570,53330
40565,53329
40566,53329
40554,53333
40582,53353
40568,53355
40571,53372
40571,53378
40572,53373
40580,53381
40569,53385
40583,53395
40594,53396
40586,53423
40595,53432
40587,53440
40602,53443
40590,53449
40588,53456
40590,53479
40610,53462
40591,53429
40568,53396
40544,53291
40496,53143
40455,52989
40417,52864
40394,52751
40371,52685
40352,52641
40351,52600
40356,52576
40346,52567
40346,52588
40357,52595
40373,52611
40370,52616
40381,52636
40375,52651
40382,52684
40390,52707
40392,52719
40415,52736
40398,52748
40411,52762
40434,52754
40431,52781
40425,52798
40445,52823
40438,52832
40451,52857
40446,52880
40465,52898
40462,52912
40465,52920
40469,52922
40468,52919
40466,52915
40469,52917
40452,52914
40453,52873
40455,52897
40456,52872
40446,52880
40455,52860
40473,52870
40448,52869
40464,52872
40477,52886
40469,52889
40481,52911
40473,52900
40480,52928
40475,52934
40497,52941
40489,52950
40493,52966
40498,52979
40489,52994
40519,53009
40520,53008
40512,53019
40500,53022
40519,53054
40515,53059
40519,53069
40535,53081
40530,53100
40548,53098
40532,53114
40525,53118
40549,53140
40545,53143
40553,53176
40555,53177
40553,53173
40554,53176
40559,53198
40555,53210
40560,53217
40559,53215
40564,53235
40569,53225
40575,53247
40589,53249
40588,53263
40578,53269
40580,53274
40579,53269
40590,53301
40585,53305
40588,53313
40596,53302
40598,53313
40595,53334
40593,53340
40598,53330
40595,53350
40605,53355
40594,53369
40612,53367
40623,53375
40603,53372
40615,53393
40612,53370
40623,53409
40609,53392
40618,53414
40618,53407
40631,53428
40636,53435
40628,53454
40629,53460
40656,53482
40639,53472
40643,53484
40637,53480
40626,53467
40626,53462
40621,53424
40588,53334
40565,53214
40513,53053
40475,52938
40457,52832
40427,52754
40405,52700
40378,52660
40423,52662
40412,52676
40409,52709
40431,52718
40438,52711
40447,52737
40435,52759
40471,52811
40473,52837
40457,52847
40486,52878
40489,52881
40492,52899
40495,52930
40530,52923
40522,52944
40507,52956
40500,52989
40531,53018
40544,53038
40554,53047
40543,53068
40539,53072
40547,53086
40543,53071
40542,53055
40540,53049
40518,53014
40519,53006
40523,52993
40515,52981
40525,52967
40507,52963
40511,52974
40525,52955
40529,52987
40526,52977
40535,52990
40536,53010
40543,53024
40544,53031
40547,53047
40546,53065
40541,53090
40577,53087
40563,53110
40561,53098
40562,53122
40561,53129
40581,53134
40574,53155
40584,53153
40571,53178
40596,53187
40570,53192
40591,53192
40590,53206
40595,53211
40602,53223
40585,53237
40604,53254
40606,53242
40599,53270
40601,53267
40606,53286
40607,53283
40600,53287
40613,53313
40614,53308
40607,53317
40619,53335
40625,53337
40631,53344
40628,53340
40633,53346
40636,53363
40635,53369
40640,53367
40630,53397
40644,53394
40632,53393
40651,53411
40631,53406
40651,53414
40663,53425
40653,53435
40639,53439
40652,53448
40652,53465
40668,53467
40655,53452
40662,53453
40630,53422
40623,53344
40586,53229
40535,53085
40510,52965
40481,52848
40444,52777
40436,52722
40441,52683
40424,52670
40440,52663
40439,52668
40430,52658
40437,52671
40433,52699
40468,52694
40454,52722
40467,52737
40481,52758
40481,52801
40491,52789
40477,52816
40484,52827
40498,52834
40501,52866
40494,52860
40501,52888
40518,52897
40511,52936
40520,52952
40542,52964
40538,52999
40527,52998
40543,53016
40540,53004
40537,52987
40538,52991
40538,52983
40544,52970
40526,52947
40530,52945
40525,52932
40532,52936
40525,52923
40531,52953
40525,52945
40514,52957
40527,52955
40521,52963
40541,52970
40544,52993
40546,52999
40556,53008
40544,53026
40540,53013
40558,53026
40563,53055
40557,53069
40577,53086
40582,53100
40573,53100
40579,53115
40582,53113
40576,53128
40583,53120
40587,53140
40583,53158
40586,53157
40598,53180
40595,53184
40602,53182
40597,53209
40613,53191
40600,53235
40621,53223
40608,53234
40605,53261
40609,53256
40627,53275
40620,53274
40614,53278
40630,53276
40625,53283
40633,53302
40634,53285
40621,53308
40635,53337
40637,53338
40630,53340
40640,53340
40629,53357
40636,53336
40639,53358
40640,53371
40631,53361
40644,53378
40653,53379
40656,53377
40642,53386
40662,53403
40648,53421
40650,53424
40654,53393
40653,53436
40659,53443
40667,53446
40676,53455
40681,53470
40667,53473
40645,53463
40639,53394
40624,53320
40575,53173
40540,53033
40491,52897
40473,52800
40456,52714
40432,52665
40442,52643
40439,52622
40429,52593
40436,52600
40429,52594
40440,52612
40422,52620
40439,52662
40439,52666
40447,52666
40451,52699
40458,52717
40475,52741
40467,52751
40480,52754
40476,52768
40462,52776
40484,52803
40481,52806
40483,52815
40497,52840
40505,52867
40523,52900
40528,52919
40508,52937
40530,52946
40521,52924
40522,52932
40516,52923
40522,52890
40514,52904
40514,52897
40512,52872
40507,52873
40496,52868
40504,52857
40511,52851
40494,52867
40518,52887
40507,52883
40507,52897
40515,52895
40519,52921
40529,52948
40536,52939
40545,52909
40539,52937
40531,52975
40561,52987
40533,52991
40548,53020
40547,53022
40551,53036
40554,53039
40574,53068
40597,53071
40579,53079
40551,53087
40572,53096
40572,53100
40571,53106
40577,53111
40585,53111
40578,53133
40574,53139
40597,53144
40586,53167
40600,53145
40591,53181
40596,53168
40609,53187
40603,53191
40606,53210
40610,53207
40608,53213
40615,53222
40609,53242
40616,53229
40609,53236
40618,53259
40619,53257
40628,53275
40619,53271
40628,53272
40633,53268
40632,53293
40639,53303
40637,53311
40624,53315
40637,53315
40650,53330
40637,53331
40641,53340
40658,53339
40654,53338
40641,53348
40659,53360
40641,53360
40658,53363
40644,53373
40668,53382
40669,53397
40666,53398
40656,53409
40655,53420
40671,53419
40669,53444
40675,53451
40669,53456
40678,53461
40665,53447
40688,53446
40679,53425
40647,53355
40588,53236
40561,53077
40536,52956
40492,52821
40450,52710
40454,52644
40431,52611
40415,52605
40416,52572
40427,52571
40433,52585
40438,52606
40429,52621
40453,52638
40455,52672
40452,52689
40465,52726
40469,52743
40485,52753
40478,52763
40486,52785
40492,52790
40493,52795
40492,52818
40504,52849
40501,52865
40522,52874
40523,52916
40540,52939
40537,52960
40552,52947
40546,52953
40543,52955
40520,52939
40534,52941
40523,52903
40525,52884
40519,52868
40523,52865
40514,52874
40511,52843
40518,52864
40511,52855
40513,52867
40511,52868
40508,52874
40531,52882
40540,52898
40534,52919
40540,52923
40525,52936
40541,52943
40554,52952
40549,52971
40553,52972
40571,52980
40544,52994
40567,53017
40565,53029
40578,53038
40567,53043
40588,53054
40574,53072
40588,53076
40580,53078
40585,53102
40589,53110
40580,53109
40605,53115
40598,53124
40606,53136
40609,53138
40611,53165
40609,53170
40609,53163
40616,53194
40618,53190
40636,53208
40618,53206
40619,53214
40619,53241
40610,53239
40629,53249
40640,53246
40618,53257
40627,53267
40630,53270
40649,53289
40633,53283
40620,53296
40638,53308
40650,53316
40648,53320
40652,53332
40640,53315
40647,53321
40655,53342
40648,53347
40654,53336
40656,53358
40656,53347
40650,53350
40669,53364
40664,53367
40662,53396
40674,53400
40658,53431
40683,53419
40674,53428
40673,53443
40685,53456
40679,53421
40674,53422
40648,53352
40615,53234
40572,53082
40537,52942
40482,52813
40473,52691
40433,52623
40438,52580
40433,52550
40421,52531
40400,52514
40404,52520
40392,52511
40420,52537
40418,52538
40432,52566
40422,52593
40443,52594
40441,52625
40449,52631
40464,52654
40458,52656
40458,52681
40461,52674
40458,52692
40479,52702
40489,52720
40496,52742
40503,52761
40498,52794
40503,52810
40505,52830
40510,52832
40518,52833
40526,52831
40515,52836
40529,52823
40511,52808
40501,52804
40496,52787
40502,52786
40506,52754
40504,52769
40493,52768
40499,52775
40505,52773
