41078,53711
41070,53725
41081,53729
41080,53739
41087,53752
41083,53764
41088,53773
41094,53773
41075,53798
41083,53795
41102,53787
41096,53802
41098,53806
41094,53826
41102,53816
41102,53807
41091,53830
41105,53827
41100,53842
41093,53839
41107,53846
41095,53863
41097,53857
41073,53858
41112,53862
41113,53873
41101,53880
41103,53892
41099,53876
41098,53902
41098,53897
41096,53892
41106,53894
41103,53907
41119,53928
41113,53927
41119,53925
41119,53922
41121,53936
41118,53966
41125,53954
41124,53978
41123,53980
41134,53987
41135,53987
41125,53978
41121,53960
41105,53915
41079,53835
41042,53708
40995,53565
40952,53431
40942,53331
40915,53289
40903,53227
40885,53190
40873,53165
40897,53148
40895,53164
40890,53181
40918,53218
40913,53244
40925,53277
40942,53309
40945,53337
40959,53358
40959,53400
40979,53412
40991,53455
40991,53471
40987,53479
41000,53507
41008,53550
41020,53571
41029,53581
41039,53620
41043,53628
41049,53648
41036,53655
41028,53643
41023,53647
41033,53646
41037,53614
41037,53620
41023,53600
41012,53580
41005,53564
41022,53556
41004,53553
41006,53548
41001,53549
41012,53550
41014,53572
41010,53578
41012,53598
41019,53598
41022,53619
41041,53628
41033,53627
41032,53675
41022,53689
41042,53677
41038,53689
41050,53710
41046,53708
41063,53737
41060,53747
41055,53752
41062,53757
41077,53774
41060,53778
41068,53784
41065,53800
41081,53804
41070,53817
41074,53823
41076,53846
41072,53866
41078,53843
41098,53869
41082,53874
41078,53872
41089,53882
41098,53892
41088,53903
41092,53900
41086,53913
41088,53914
41097,53924
41096,53928
41094,53933
41102,53937
41094,53937
41112,53944
41105,53964
41100,53964
41086,53974
41101,53977
41129,53990
41118,53993
41121,54009
41133,53995
41112,54011
41097,54014
41120,54018
41104,54033
41102,53966
41067,53909
41063,53810
41011,53681
40970,53512
40923,53397
40903,53303
40888,53235
40864,53190
40857,53152
40848,53132
40863,53136
40878,53153
40880,53162
40875,53183
40899,53211
40908,53224
40913,53269
40919,53292
40926,53283
40927,53348
40930,53350
40945,53344
40937,53373
40951,53384
40952,53397
40959,53408
40944,53427
40964,53466
40978,53489
40977,53496
40983,53522
40998,53564
41007,53558
40986,53569
40972,53553
40993,53557
40994,53546
40971,53537
40982,53543
40985,53473
40971,53456
40974,53476
40959,53459
40968,53487
40967,53501
40961,53511
40986,53505
40972,53522
40965,53532
41009,53563
41029,53557
41010,53570
40984,53584
41003,53598
40986,53624
40995,53624
41009,53639
41010,53651
41021,53660
41019,53677
41017,53694
41029,53695
41019,53724
41040,53723
41034,53733
41046,53736
41029,53738
41034,53746
41044,53768
41047,53773
41031,53784
41047,53782
41035,53806
41055,53816
41060,53812
41058,53842
41063,53820
41058,53837
41064,53841
41059,53845
41066,53873
41062,53861
41077,53878
41057,53883
41062,53887
41071,53880
41061,53882
41071,53900
41069,53899
41075,53904
41071,53922
41069,53920
41072,53919
41072,53942
41077,53947
41077,53949
41090,53968
41071,53975
41079,53976
41063,53983
41090,53978
41089,53995
41069,53971
41058,53930
41029,53859
41015,53760
40977,53623
40925,53458
40906,53350
40877,53270
40850,53215
40832,53157
40834,53138
40843,53150
40842,53141
40860,53149
40849,53169
40875,53211
40883,53227
40896,53250
40906,53280
40890,53300
40918,53340
40906,53343
40923,53380
40909,53381
40930,53410
40933,53418
40927,53441
40953,53463
40956,53474
40974,53506
40978,53542
40971,53564
40966,53563
40973,53570
40961,53575
40969,53579
40982,53546
40952,53539
40951,53512
40943,53502
40940,53493
40930,53476
40928,53466
40936,53468
40933,53459
40949,53431
40942,53459
40939,53465
40939,53480
40947,53504
40960,53501
40943,53513
40967,53530
40939,53573
40960,53555
40952,53572
40978,53577
40975,53599
40984,53614
40979,53609
40966,53633
40981,53629
40991,53637
40974,53648
40995,53663
40987,53679
40998,53683
41014,53701
41008,53707
41005,53713
41030,53732
41007,53715
41005,53729
41005,53739
41009,53752
41023,53770
41016,53773
41015,53767
41005,53795
41024,53782
41020,53784
41018,53797
41038,53813
41041,53813
41019,53823
41031,53833
41028,53839
41031,53817
41040,53845
41038,53858
41022,53853
41047,53855
41033,53876
41041,53887
41040,53877
41053,53882
41040,53897
41041,53901
41062,53911
41060,53920
41037,53920
41059,53914
41031,53867
41001,53820
40992,53712
40938,53579
40889,53425
40868,53318
40838,53212
40810,53129
40802,53090
40788,53069
40802,53058
40796,53060
40800,53064
40796,53075
40812,53086
40824,53123
40821,53154
40834,53163
40841,53196
40851,53216
40862,53246
40862,53244
40863,53278
40880,53282
40876,53279
40901,53325
40883,53343
40899,53377
40897,53380
40912,53428
40907,53451
40901,53464
40928,53470
40929,53489
40917,53471
40909,53448
40926,53427
40897,53414
40904,53397
40901,53388
40875,53380
40882,53351
40883,53352
40875,53348
40901,53355
40890,53360
40879,53378
40892,53365
40916,53387
40913,53404
40906,53420
40907,53441
40908,53455
40914,53459
40909,53482
40924,53495
40934,53508
40929,53524
40926,53529
40922,53547
40937,53557
40950,53554
40956,53573
40951,53579
40938,53590
40958,53614
40946,53619
40951,53618
40961,53636
40961,53644
40980,53619
40957,53655
40969,53648
40972,53670
40972,53672
40968,53693
40958,53718
40971,53715
40976,53728
40984,53719
40980,53736
40985,53743
40973,53749
40988,53750
40999,53763
40990,53813
40980,53777
40999,53752
40991,53762
41020,53788
41002,53792
41017,53806
40999,53815
41002,53822
40993,53825
41001,53823
41012,53826
41018,53848
41024,53851
41016,53855
40970,53875
40994,53869
41011,53886
40998,53906
41013,53872
41015,53881
41011,53871
40985,53803
40941,53695
40909,53540
40831,53373
40814,53241
40785,53138
40766,53023
40737,52977
40726,52936
40729,52902
40711,52916
40727,52916
40729,52915
40735,52927
40730,52955
40738,52977
40746,52987
40751,52996
40773,53021
40782,53043
40782,53041
40766,53084
40764,53072
40790,53098
40789,53106
40789,53106
40799,53129
40798,53160
40809,53171
40811,53194
40813,53210
40825,53238
40836,53244
40824,53252
40830,53245
40831,53242
40812,53238
40827,53229
40824,53223
40814,53193
40805,53190
40809,53178
40804,53181
40801,53180
40805,53168
40812,53175
40814,53189
40801,53177
40810,53210
40817,53227
40809,53218
40822,53236
40831,53260
40843,53265
40831,53282
40835,53292
40843,53311
40865,53321
40856,53334
40851,53350
40846,53381
40877,53375
40874,53392
40855,53410
40875,53421
40875,53436
40877,53445
40873,53462
40872,53455
40877,53486
40891,53460
40895,53483
40888,53493
40879,53492
40904,53521
40904,53513
40905,53530
40905,53560
40908,53552
40907,53589
40918,53572
40926,53578
40916,53595
40923,53604
40924,53605
40921,53614
40928,53612
40927,53627
40932,53626
40929,53642
40921,53647
40943,53665
40954,53660
40929,53668
40933,53667
40944,53694
40934,53694
40939,53704
40922,53699
40934,53713
40945,53709
40938,53724
40942,53737
40957,53741
40939,53745
40947,53731
40949,53751
40964,53772
40952,53769
40953,53782
40952,53777
40959,53790
40950,53806
40970,53823
40961,53824
40967,53826
40979,53854
40968,53824
40950,53812
40955,53757
40911,53674
40862,53536
40819,53340
40787,53219
40735,53100
40716,53000
40710,52926
40681,52882
40665,52872
40675,52858
40683,52852
40687,52885
40696,52873
40694,52895
40718,52915
40711,52971
40722,52965
40717,52979
40728,53014
40742,53024
40747,53065
40763,53073
40758,53078
40758,53086
40756,53106
40783,53131
40776,53173
40787,53193
40787,53206
40797,53234
40801,53233
40807,53254
40794,53244
40799,53248
40794,53240
40786,53215
40804,53205
40785,53185
40780,53159
40764,53157
40764,53145
40780,53138
40782,53141
40767,53136
40766,53152
40773,53144
40774,53170
40772,53185
40769,53198
40789,53200
40799,53224
40810,53220
40795,53247
40819,53264
40798,53270
40813,53285
40815,53285
40806,53311
40837,53320
40830,53327
40834,53343
40825,53368
40850,53373
40840,53379
40841,53402
40851,53404
40845,53430
40851,53424
40863,53423
40853,53435
40858,53447
40846,53458
40870,53481
40865,53480
40875,53502
40858,53494
40867,53510
40873,53513
40893,53533
40884,53546
40879,53551
40872,53551
40891,53556
40889,53576
40879,53580
40870,53589
40904,53592
40903,53582
40896,53591
40895,53592
40880,53606
40892,53610
40916,53629
40903,53611
40908,53639
40911,53655
40917,53647
40921,53662
40914,53663
40910,53672
40927,53677
40919,53697
40929,53696
40923,53709
40924,53709
40926,53721
40930,53736
40914,53758
40925,53775
40925,53741
40912,53705
40912,53646
40873,53600
40822,53454
40779,53294
40757,53157
40724,53046
40681,52944
40664,52893
40678,52845
40669,52828
40650,52825
40662,52822
40892,53610
40653,52837
40680,52867
40676,52896
40672,52912
40706,52931
40704,52965
40716,52992
40730,53003
40723,53028
40726,53044
40733,53059
40730,53069
40745,53088
40741,53127
40774,53161
40783,53185
40781,53201
40791,53234
40786,53217
40799,53233
40788,53238
40789,53222
40775,53220
40768,53195
40753,53162
40777,53156
40757,53140
40747,53134
40768,53134
40745,53127
40761,53145
40749,53119
40750,53124
40769,53144
40768,53161
40768,53176
40748,53187
40796,53211
40787,53212
40793,53228
40792,53249
40793,53258
40803,53280
40802,53293
40819,53290
40809,53313
40811,53349
40821,53354
40823,53355
40825,53375
40832,53369
40837,53378
40829,53404
40856,53421
40834,53428
40832,53445
40847,53433
40850,53454
40838,53454
40850,53482
40854,53472
40853,53482
40854,53499
40863,53521
40871,53518
40868,53539
40856,53535
40878,53549
40861,53552
40892,53559
40875,53573
40883,53580
40884,53589
40887,53603
40888,53593
40900,53596
40888,53622
40883,53640
40898,53624
40875,53635
40900,53622
40892,53649
40894,53661
40892,53665
40894,53661
40880,53659
40899,53672
40903,53685
40893,53690
40918,53711
40899,53704
40908,53711
40915,53733
40925,53737
40922,53744
40931,53737
40914,53745
40921,53725
40911,53697
40868,53615
40838,53504
40772,53308
40744,53169
40710,53044
40679,52922
40649,52857
40630,52806
40624,52781
40632,52776
40624,52750
40617,52770
40641,52788
40646,52820
40663,52795
40667,52828
40669,52840
40673,52886
40679,52886
40691,52912
40695,52935
40700,52930
40699,52947
40689,52965
40697,52985
40710,52998
40731,53001
40726,53041
40738,53061
40744,53084
40753,53102
40751,53115
40740,53120
40739,53119
40751,53126
40758,53114
40737,53094
40736,53106
40730,53072
40738,53077
40721,53054
40742,53048
40722,53053
40741,53042
40716,53056
40742,53054
40739,53070
40723,53084
40751,53099
40749,53120
40754,53122
40763,53141
40771,53147
40778,53164
40766,53183
40765,53181
40779,53214
40782,53230
40790,53226
40790,53249
40784,53285
40798,53293
40812,53291
40813,53302
40807,53296
40811,53336
40814,53346
40826,53351
40812,53361
40831,53377
40823,53367
40814,53399
40835,53402
40837,53416
40837,53432
40841,53430
40857,53422
40852,53445
40852,53462
40842,53465
40861,53483
40866,53480
40857,53508
40859,53500
40875,53510
40861,53535
40859,53527
40868,53524
40875,53529
40867,53534
40883,53557
40881,53548
40866,53554
40893,53585
40873,53580
40865,53579
40888,53595
40884,53598
40875,53621
40882,53619
40888,53598
40893,53622
40903,53618
40903,53635
40897,53649
40900,53661
40908,53658
40900,53674
40912,53689
40902,53698
40915,53706
40909,53696
40930,53729
40909,53731
40917,53739
40903,53730
40921,53723
40907,53643
40864,53575
40819,53431
40772,53247
40733,53126
40702,53019
40681,52919
40659,52846
40655,52814
40644,52795
40635,52797
40652,52784
40659,52801
40666,52832
40666,52866
40688,52868
40676,52913
40698,52945
40731,52983
40726,52987
40736,52997
40738,53034
40731,53046
40744,53065
40754,53097
40767,53111
40758,53157
40771,53175
40797,53204
40809,53221
40803,53233
40788,53240
40795,53242
40864,53575
40779,53225
40774,53195
40776,53179
40759,53150
40760,53144
40746,53127
40741,53117
40753,53110
40747,53118
40761,53115
40768,53122
40776,53141
40773,53158
40782,53165
40781,53169
40788,53199
40799,53226
40793,53212
40812,53243
40791,53272
40820,53262
40802,53285
40813,53305
40804,53322
40842,53339
40845,53337
40840,53351
40825,53374
40822,53366
40848,53380
40843,53395
40846,53413
40860,53427
40842,53426
40855,53433
40861,53444
40859,53461
40869,53452
40859,53474
40865,53489
40870,53505
40870,53503
40880,53510
40862,53516
40880,53529
40878,53536
40870,53546
40876,53550
40888,53555
40892,53571
40881,53577
40882,53583
40908,53596
40892,53586
40915,53590
40907,53606
40906,53609
40908,53624
40906,53626
40929,53654
40904,53641
40916,53644
40909,53662
40919,53661
40915,53663
40921,53668
40906,53676
40926,53688
40921,53696
40923,53695
40952,53714
40940,53730
40933,53733
40943,53749
40936,53750
40942,53758
40937,53752
40920,53745
40917,53694
40896,53607
40850,53476
40801,53306
40759,53169
40735,53063
40712,52968
40679,52901
40674,52866
40667,52834
40670,52831
40680,52834
40680,52844
40696,52867
40696,52887
40707,52914
40711,52943
40733,52969
40755,52997
40741,53028
40736,53037
40756,53048
40772,53064
40766,53092
40773,53098
40773,53118
40793,53153
40799,53168
40787,53196
40795,53219
40791,53244
40815,53275
40813,53276
40809,53271
40818,53265
40809,53246
40812,53236
40786,53214
40799,53206
40786,53196
40793,53193
40782,53162
40804,53174
40796,53177
40795,53183
40779,53197
40799,53187
40793,53210
40799,53228
40803,53236
40815,53254
40832,53269
40816,53294
40838,53302
40822,53310
40829,53319
40833,53335
40839,53344
40851,53354
40865,53380
40841,53392
40868,53410
40866,53418
40861,53443
40872,53446
40862,53463
40876,53460
40879,53477
40881,53487
40882,53496
40880,53512
40887,53524
40888,53535
40893,53524
40884,53544
40899,53537
40896,53551
40900,53567
40910,53584
40912,53586
40917,53592
40907,53606
40912,53608
40911,53612
40917,53622
40907,53625
40916,53626
40926,53642
40929,53667
40912,53658
40921,53659
40937,53673
40926,53675
40926,53676
40931,53690
40926,53691
40928,53693
40938,53719
40940,53722
40930,53734
40954,53733
40940,53740
40942,53737
40953,53745
40955,53760
40955,53761
40955,53779
40969,53774
40948,53789
40960,53794
40961,53797
40959,53829
40975,53817
40968,53838
40961,53834
40966,53846
40956,53828
40961,53806
40970,53798
40936,53694
40888,53584
40842,53421
40795,53248
40761,53155
40738,53053
40708,52969
40703,52931
40701,52916
40712,52907
40697,52915
40722,52925
40714,52958
40740,52983
40744,53023
40743,53026
40775,53051
40762,53091
40784,53120
40790,53129
40793,53158
40805,53164
40798,53130
40803,53196
40811,53211
40819,53236
40829,53245
40824,53269
40834,53287
40840,53308
40856,53344
40852,53347
40862,53353
40846,53340
40855,53335
40843,53325
40836,53310
40843,53308
40840,53275
40819,53253
40819,53232
40812,53262
40815,53263
40809,53263
40834,53263
40845,53282
40854,53286
40845,53315
40853,53326
40869,53339
40871,53351
40865,53364
40826,53381
40805,53164
40841,53407
40875,53424
40877,53429
40878,53445
40889,53456
40888,53481
40881,53478
40884,53502
40901,53502
40912,53523
40912,53528
40905,53532
40902,53552
40901,53554
40909,53571
40905,53575
40896,53580
40909,53589
40922,53581
40923,53608
40932,53613
40928,53615
40931,53633
40924,53635
40935,53649
40933,53669
40930,53657
40939,53665
40929,53688
40941,53696
40939,53687
40948,53698
40948,53702
40959,53724
40942,53725
40953,53718
40950,53723
40953,53736
40964,53739
40956,53743
40950,53755
40960,53772
40954,53765
40969,53760
40953,53765
40962,53792
40969,53792
40970,53791
40963,53793
40982,53804
40976,53820
40981,53813
40970,53823
40984,53838
40987,53846
40991,53860
40983,53860
40984,53877
40991,53877
40996,53873
40995,53853
40976,53821
40953,53748
40917,53634
40873,53487
40824,53322
40795,53225
40769,53132
40752,53068
40748,53029
40742,53015
40735,53001
40741,53005
40762,53022
40757,53064
40785,53087
40778,53101
40801,53146
40812,53169
40822,53192
40821,53229
40817,53249
40831,53265
40844,53288
40841,53324
40827,53332
40866,53360
40857,53370
40873,53382
40888,53415
40891,53449
40895,53457
40891,53478
40893,53463
40882,53474
40903,53470
40887,53440
40884,53447
40882,53422
40865,53397
40864,53406
40869,53383
40860,53358
40877,53366
40852,53364
40853,53370
40864,53379
40867,53381
40875,53396
40878,53414
40882,53432
40880,53438
40885,53453
40893,53468
40882,53480
40897,53483
40902,53502
40904,53517
40908,53535
40911,53552
40923,53564
40911,53581
40916,53576
40931,53586
40933,53604
40935,53610
40939,53618
40930,53641
40940,53643
40941,53651
40941,53656
40945,53672
40959,53674
40947,53663
40958,53711
40957,53706
40969,53709
40949,53717
40963,53732
40966,53733
40970,53738
40964,53741
40976,53761
40968,53759
40975,53770
40984,53772
40978,53795
40970,53782
40984,53794
40963,53808
40986,53813
41000,53819
40969,53814
40993,53836
40981,53821
40996,53820
40991,53838
41013,53854
40994,53846
40984,53859
40994,53869
40993,53868
41002,53866
41002,53874
41009,53875
41001,53886
41016,53905
41005,53922
41009,53908
41006,53925
41036,53935
41007,53937
41014,53954
41010,53946
41018,53968
41029,53981
41024,53972
41012,53967
41005,53928
40980,53872
40945,53771
40911,53640
40857,53466
40813,53327
40796,53233
40785,53145
40759,53098
40756,53069
40765,53052
40755,53071
40772,53080
40769,53107
40782,53126
40795,53155
40806,53177
40807,53212
40826,53235
40839,53257
40837,53289
40855,53310
40857,53331
40856,53347
40854,53355
40874,53378
40883,53383
40877,53422
40880,53441
40894,53460
40905,53484
40900,53504
40912,53521
40912,53511
40890,53525
40902,53518
40911,53512
40895,53490
40882,53467
40893,53457
40880,53403
40870,53427
40874,53431
40866,53418
40867,53427
40874,53409
40863,53435
40873,53446
40875,53431
40902,53454
40903,53478
40898,53479
40889,53506
40892,53506
40906,53523
40912,53564
40935,53599
40932,53571
40945,53575
40929,53605
40931,53600
40924,53628
40930,53645
40941,53648
40932,53674
40949,53672
40930,53686
40953,53691
40982,53705
40944,53708
40979,53739
40921,53722
40924,53733
40953,53749
40973,53751
40970,53762
40985,53759
40970,53780
40984,53772
40979,53785
40976,53808
40969,53825
40992,53823
40976,53813
40984,53816
40979,53828
40975,53836
40990,53828
40994,53847
40995,53851
40988,53864
40987,53871
40991,53865
40993,53867
40992,53898
41003,53911
40992,53900
41010,53895
40999,53893
41032,53898
41006,53922
40999,53932
41019,53920
41022,53945
41006,53938
41003,53933
40992,53959
41010,53977
41013,53968
41018,53970
41024,53978
41022,53996
41027,54013
41015,54015
41020,54016
41012,54017
41010,53993
41011,53946
40977,53890
40954,53784
40915,53617
40864,53482
40835,53340
40808,53266
40793,53180
40778,53154
40767,53130
40774,53121
40774,53136
40785,53147
40801,53177
40798,53199
40816,53227
40827,53257
40842,53290
40835,53310
40852,53351
40852,53372
40863,53385
40878,53407
40873,53430
40888,53430
40889,53464
40894,53468
40905,53499
40911,53517
40911,53552
40899,53553
40922,53592
40911,53594
40916,53583
40922,53585
40917,53576
40913,53557
40902,53547
40899,53530
40894,53514
40874,53496
40898,53515
40892,53476
40888,53490
40888,53497
40890,53492
40902,53505
40900,53526
40891,53533
40897,53540
40904,53552
40899,53562
40918,53569
40912,53590
40925,53615
40931,53612
40934,53622
40934,53645
40944,53663
40942,53678
40950,53668
40933,53701
40952,53706
40953,53724
40946,53733
40973,53728
40967,53755
40952,53744
40965,53763
40967,53777
40970,53775
40959,53789
40967,53793
40976,53794
40991,53812
40966,53815
40977,53836
40980,53842
40981,53847
40980,53842
40988,53855
40994,53861
40986,53865
40988,53874
40989,53882
40989,53882
40989,53895
40999,53904
40996,53903
40994,53909
40999,53914
40997,53915
41008,53926
41008,53929
40992,53932
40977,53938
41006,53962
41008,53942
40996,53961
41000,53970
41016,53966
41012,53973
41003,53989
41014,53993
41005,54009
41002,53998
41010,54024
41013,54013
41005,54021
41025,54021
41034,54030
41015,54034
41013,54019
41004,53958
40986,53891
40945,53777
40914,53640
40856,53485
40814,53386
40813,53303
40796,53257
40787,53202
40780,53186
40784,53203
40785,53210
40785,53223
40808,53249
40826,53272
40828,53327
40836,53353
40849,53379
40848,53402
40878,53442
40882,53469
40865,53482
40894,53514
40877,53528
40894,53539
40905,53570
40908,53586
40910,53631
40923,53612
40932,53636
40922,53654
40934,53684
40945,53665
40949,53663
40930,53653
40917,53640
40891,53622
40912,53601
40903,53589
40906,53568
40905,53559
40901,53550
40891,53538
40901,53534
40882,53548
40891,53563
40905,53571
40895,53578
40930,53589
40927,53610
40913,53638
40912,53616
40917,53625
40926,53647
40923,53663
40928,53673
40951,53695
40927,53697
40939,53703
40947,53704
40953,53706
40950,53739
40954,53753
40950,53762
40959,53771
40965,53783
40955,53795
40961,53802
40955,53804
40967,53817
40985,53799
40966,53824
40971,53842
40966,53830
40968,53845
40971,53900
40989,53874
40983,53889
40976,53862
40981,53871
40981,53858
40989,53903
40989,53902
40999,53899
40998,53914
41007,53935
40978,53926
41001,53936
40989,53932
41000,53947
40991,53956
40979,53959
40953,53706
40978,53955
40992,53951
41007,53967
40998,53993
40992,53971
41005,53997
41003,53995
40997,54013
41019,54025
41006,54037
41019,54027
41019,54045
41009,54030
41008,54031
40994,53986
40978,53909
40952,53824
40893,53681
40868,53547
40836,53423
40807,53326
40790,53259
40783,53216
40784,53210
40764,53182
40783,53212
40799,53211
40792,53252
40806,53267
40812,53290
40828,53322
40833,53358
40844,53383
40842,53408
40848,53437
40861,53466
40856,53466
40869,53468
40865,53486
40876,53524
40887,53539
40892,53530
40898,53563
40896,53597
40899,53622
40906,53622
40931,53626
40911,53614
40909,53616
40912,53588
40902,53602
40906,53588
40894,53557
40882,53548
40882,53534
40877,53527
40865,53513
40866,53530
40875,53528
40888,53528
40891,53540
40889,53560
40895,53576
40886,53568
40888,53571
40894,53593
40899,53617
40901,53636
40919,53630
40908,53630
40925,53651
40922,53679
40921,53669
40927,53684
40934,53705
40932,53710
40928,53737
40934,53745
40950,53755
40931,53751
40931,53771
40952,53760
40942,53789
40949,53779
40955,53785
40940,53808
40951,53812
40956,53815
40949,53828
40951,53840
40947,53840
40971,53839
40962,53845
40965,53861
40952,53856
40962,53874
40954,53885
40968,53883
40965,53892
40965,53886
40965,53895
40979,53905
40972,53911
40971,53924
40982,53942
40986,53934
40976,53939
40987,53931
40973,53935
40982,53947
40971,53959
40966,53958
40991,53979
40989,53975
40977,53976
40981,53979
40983,53987
40978,53983
40986,54007
41002,54024
41004,54015
41004,54027
41001,54037
40986,54027
41006,54039
40995,54047
41005,54063
40994,54055
41008,54076
40990,54041
40980,53963
40949,53889
40909,53768
40865,53619
40826,53481
40801,53358
40782,53289
40769,53228
40756,53202
40746,53183
40764,53196
40767,53198
40772,53206
40776,53228
40789,53270
40781,53288
40807,53323
40805,53348
40823,53366
40826,53385
40833,53385
40838,53404
40841,53429
40838,53421
40834,53443
40839,53472
40851,53473
40850,53507
40870,53535
40859,53528
40871,53565
40875,53585
40869,53573
40894,53574
40874,53572
40864,53565
40868,53550
40857,53533
40861,53513
40836,53495
40860,53504
40846,53492
40859,53473
40858,53492
40834,53493
40849,53489
40856,53499
40863,53506
40855,53528
40860,53519
40863,53548
40862,53569
40872,53583
40878,53582
40884,53594
40877,53613
40890,53610
40881,53628
40882,53640
40897,53651
40897,53661
40902,53662
40890,53669
40900,53698
40911,53698
40903,53719
40912,53711
40918,53735
40904,53751
40919,53740
40917,53754
40926,53774
40924,53763
40945,53782
40934,53782
40915,53783
40934,53798
40929,53811
40939,53813
40936,53822
40929,53832
40942,53835
40940,53840
40944,53840
40941,53862
40955,53866
40943,53875
40959,53855
40957,53885
40948,53901
40952,53887
40961,53888
40957,53905
40950,53901
40959,53921
40965,53915
40957,53924
40967,53924
40963,53925
40955,53945
40960,53944
40972,53944
40970,53994
40968,54005
40978,53979
40965,53950
40977,53973
40973,53983
40970,54004
40973,54011
40976,53992
40979,54005
40976,54034
40967,54049
40989,54047
41000,54044
40970,54054
41006,54071
40967,54077
40988,54095
40987,54096
40991,54082
40992,54070
40982,54021
40958,53942
40910,53830
40867,53686
40827,53521
40798,53413
40771,53319
40761,53264
40753,53206
40742,53193
40745,53195
40748,53217
40762,53223
40760,53262
40775,53276
40796,53312
40802,53339
40803,53368
40820,53393
40825,53416
40825,53456
40815,53475
40844,53478
40838,53478
40843,53498
40847,53506
40857,53517
40855,53552
40856,53577
40863,53587
40895,53591
40882,53633
40881,53636
40876,53636
40884,53616
40874,53607
40866,53601
40864,53594
40853,53567
40850,53553
40841,53535
40849,53519
40845,53524
40845,53527
40852,53535
40845,53533
40855,53543
40846,53546
40865,53561
40861,53582
40870,53595
40853,53610
40873,53601
40873,53624
40867,53629
40879,53650
40886,53652
40897,53670
40885,53672
40879,53679
40886,53690
40910,53708
40900,53733
40910,53763
40900,53754
40904,53743
40903,53762
40912,53770
40914,53773
40910,53791
40924,53778
40917,53806
40912,53814
40943,53821
40935,53840
40923,53830
40916,53837
40939,53851
40934,53853
40929,53845
40934,53874
40933,53882
40950,53884
40930,53878
40931,53900
40940,53903
40950,53907
40949,53898
40935,53914
40944,53926
40942,53917
40944,53949
40964,53926
40959,53957
40955,53937
40960,53943
40959,53961
40932,53964
40955,53972
40974,53958
40949,53980
40942,53979
40958,53998
40961,53995
40970,53993
40949,54013
40959,54020
40963,54013
40967,54028
40969,54035
40961,54039
40948,54049
40975,54058
40981,54051
40978,54067
40965,54065
40973,54068
40978,54094
40977,54103
40963,54052
40968,54063
40950,54004
40909,53903
40864,53790
40837,53625
40793,53477
40781,53397
40763,53326
40766,53294
40751,53258
40737,53225
40752,53234
40741,53250
40765,53278
40772,53306
40782,53325
40793,53361
40798,53385
40799,53419
40812,53449
40832,53476
40823,53494
40838,53502
40834,53521
40826,53531
40829,53535
40849,53586
40845,53591
40864,53616
40867,53625
40883,53656
40877,53668
40874,53675
40882,53668
40882,53654
40863,53644
40878,53668
40867,53624
40862,53602
40835,53602
40859,53594
40844,53589
40868,53582
40857,53572
40840,53576
40850,53581
40845,53578
40843,53597
40857,53614
40853,53613
40868,53634
40858,53655
40855,53647
40873,53660
40882,53681
40877,53688
40871,53688
40881,53735
40889,53735
40895,53741
40892,53754
40890,53754
40905,53770
40897,53783
40898,53794
40901,53804
40917,53809
40894,53813
40915,53837
40901,53821
40908,53848
40907,53866
40921,53874
40921,53870
40930,53871
40922,53867
40918,53879
40930,53896
40943,53906
40937,53908
40924,53909
40938,53925
40936,53947
40936,53929
40939,53934
40934,53950
40949,53962
40950,53973
40934,53960
40930,53975
40926,53972
40935,53995
40951,53988
40929,54001
40955,53998
40950,54011
40947,54008
40957,54014
40954,54004
40950,54008
40964,54031
40958,54031
40949,54029
40955,54044
40980,54028
40962,54062
40960,54073
40962,54077
40971,54083
40926,54094
40958,54100
40972,54117
40967,54123
40982,54128
40966,54095
40964,54081
40958,54048
40929,53976
40903,53876
40844,53724
40819,53591
40785,53462
40768,53389
40754,53344
40769,53315
40766,53280
40724,53294
40950,54011
40758,53320
40764,53349
40772,53370
40781,53412
40798,53437
40802,53457
40804,53492
40839,53518
40843,53535
40830,53556
40842,53566
40851,53588
40854,53589
40828,53622
40860,53649
40854,53661
40867,53685
40883,53702
40894,53722
40869,53714
40871,53738
40887,53731
40873,53720
40868,53716
40884,53702
40853,53703
40851,53678
40860,53647
40843,53639
40850,53629
40837,53630
40857,53633
40839,53637
40842,53649
40855,53663
40855,53682
40852,53682
40861,53676
40867,53700
40869,53707
40871,53724
40871,53729
40882,53743
40881,53757
40889,53788
40877,53783
40906,53791
40887,53803
40900,53814
40900,53819
40891,53840
40890,53851
40916,53847
40914,53863
40914,53866
40909,53874
40905,53902
40921,53902
40929,53902
40939,53918
40942,53941
40919,53939
40924,53934
40937,53933
40922,53940
40932,53961
40936,53956
40942,53953
40946,53971
40941,53976
40939,53980
40947,53991
40936,54005
40957,54022
40931,54010
40954,54021
40943,54022
40944,54040
40937,54036
40959,54061
40939,54042
40939,54048
40956,54070
40959,54071
40939,54070
40949,54087
40948,54079
40957,54101
40954,54086
40952,54085
40960,54093
40940,54099
40967,54102
40958,54120
40958,54139
40970,54130
40960,54130
40958,54152
40969,54158
40950,54172
40969,54176
40973,54177
40979,54175
40967,54189
40967,54163
40949,54120
40927,54040
40894,53932
40857,53814
40819,53691
40782,53545
40769,53480
40755,53402
40749,53383
40740,53355
40759,53358
40761,53377
40762,53386
40777,53418
40781,53433
40790,53462
40814,53501
40806,53531
40820,53563
40829,53609
40830,53605
40840,53654
40835,53649
40845,53663
40863,53690
40854,53715
40866,53734
40868,53766
40871,53784
40873,53789
40881,53816
40886,53806
40894,53819
40876,53823
40886,53803
40880,53793
40884,53782
40863,53782
40866,53756
40857,53742
40858,53728
40860,53739
40847,53724
40843,53719
40850,53740
40858,53732
40875,53742
40858,53741
40878,53759
40869,53780
40881,53786
40876,53789
40888,53818
40876,53817
40874,53839
40886,53859
40899,53852
40896,53858
40892,53887
40909,53884
40905,53895
40898,53903
40894,53914
40907,53914
40907,53931
40922,53944
40909,53946
40914,53948
40921,53952
40924,53972
40917,53975
40914,53992
40927,53994
40920,54001
40929,54001
40915,54015
40926,54019
40924,54038
40934,54029
40934,54033
40928,54038
40938,54064
40940,54044
40925,54065
40935,54074
40929,54069
40941,54068
40940,54080
40950,54083
40944,54091
40934,54087
40932,54101
40931,54110
40948,54115
40941,54103
40933,54129
40950,54136
40958,54129
40950,54135
40964,54146
40958,54153
40948,54165
40939,54171
40949,54158
40952,54146
40942,54111
40908,54036
40874,53935
40847,53822
40819,53691
40791,53574
40760,53517
40757,53451
40749,53431
40748,53392
40742,53392
40757,53384
40759,53437
40764,53457
40773,53482
40784,53528
40809,53543
40808,53579
40813,53605
40826,53643
40822,53662
40864,53677
40827,53701
40846,53722
40854,53737
40847,53760
40857,53830
40884,53835
40876,53822
40877,53828
40879,53845
40881,53863
40877,53855
40871,53836
40870,53829
40865,53816
40855,53794
40886,53796
40879,53772
40859,53765
40847,53764
40814,53771
40850,53754
40848,53766
40842,53775
40859,53781
40835,53797
40872,53811
40865,53819
40871,53821
40872,53833
40877,53855
40881,53857
40867,53868
40890,53892
40892,53908
40884,53904
40890,53933
40903,53933
40892,53943
40898,53943
40891,53949
40897,53972
40888,53959
40894,53971
40912,53984
40917,54002
40913,53992
40918,54017
40912,54011
40920,54023
40896,54026
40920,54041
40904,54044
40919,54039
40924,54055
40927,54055
40927,54070
40924,54058
40926,54075
40929,54089
40938,54079
40924,54092
40930,54094
40928,54113
40938,54107
40927,54129
40936,54119
40931,54139
40934,54140
40933,54149
40952,54149
40938,54158
40951,54159
40938,54155
40937,54157
40919,54112
40908,54062
40895,54003
40858,53870
40810,53734
40760,53605
40751,53516
40734,53433
40713,53403
40714,53370
40717,53366
40713,53352
40732,53359
40725,53364
40727,53398
40748,53418
40748,53432
40741,53452
40762,53472
40770,53498
40774,53512
40770,53546
40762,53550
40771,53566
40792,53574
40773,53580
40794,53590
40804,53620
40801,53633
40812,53637
40813,53686
40808,53693
40820,53706
40806,53715
40808,53711
40819,53689
40825,53680
40804,53683
40813,53662
40801,53649
40793,53625
40790,53625
40790,53613
40785,53615
40797,53608
40780,53601
40800,53630
40794,53634
40808,53645
40808,53659
40814,53674
40810,53690
40823,53687
40816,53679
40822,53716
40814,53712
40821,53742
40820,53736
40836,53744
40836,53764
40833,53768
40818,53768
40829,53783
40847,53797
40849,53815
40854,53815
40847,53835
40839,53849
40848,53857
40857,53861
40840,53883
40864,53861
40843,53882
40857,53870
40856,53879
40874,53902
40860,53900
40873,53909
40879,53909
40857,53908
40873,53918
40870,53917
40875,53930
40855,53951
40867,53930
40875,53934
40863,53944
40867,53959
40869,53973
40877,53965
40882,53951
40890,53981
40875,53971
40872,53989
40894,54012
40886,54015
40895,54023
40888,54011
40888,54014
40888,54015
40877,54008
40864,53979
40853,53931
40836,53851
40788,53719
40750,53584
40724,53475
40717,53407
40688,53360
40685,53300
40677,53291
40675,53252
40672,53259
40684,53267
40671,53276
40686,53303
40688,53328
40698,53326
40697,53340
40710,53363
40706,53382
40713,53382
40712,53399
40728,53399
40729,53414
40722,53427
40737,53434
40738,53445
40742,53468
40755,53487
40741,53498
40769,53516
40751,53537
40763,53529
40748,53534
40749,53536
40754,53517
40754,53497
40736,53490
40729,53467
40736,53463
40737,53458
40739,53453
40733,53461
40738,53445
40730,53453
40737,53466
40745,53468
40751,53474
40733,53493
40744,53520
40739,53500
40749,53516
40751,53520
40757,53527
40760,53541
40731,53540
40742,53565
40754,53574
40773,53574
40776,53600
40770,53601
40769,53600
40761,53592
40771,53629
40783,53583
40779,53624
40769,53630
40795,53649
40782,53656
40779,53653
40784,53657
40790,53677
40781,53670
40772,53686
40822,53709
40803,53718
40799,53705
40813,53737
40794,53743
40816,53779
40804,53755
40799,53720
40817,53724
40786,53721
40773,53645
40741,53555
40706,53444
40673,53333
40665,53265
40635,53196
40626,53141
40634,53100
40630,53097
40606,53066
40585,53057
40771,53629
40585,53066
40629,53086
40617,53097
40631,53110
40641,53117
40634,53124
40638,53148
40624,53144
40631,53151
40640,53156
40646,53142
40646,53161
40656,53179
40642,53207
40655,53226
40659,53237
40676,53274
40672,53270
40693,53281
40681,53281
40683,53272
40682,53262
40668,53261
40687,53249
40658,53223
40658,53222
40650,53210
40653,53204
40655,53199
40661,53189
40666,53204
40668,53197
40660,53216
40658,53203
40654,53224
40656,53235
40668,53242
40670,53255
40672,53272
40670,53271
40685,53283
40683,53277
40688,53300
40684,53292
40697,53308
40686,53302
40683,53312
40686,53311
40690,53318
40710,53332
40702,53347
40697,53348
40705,53371
40702,53370
40708,53402
40705,53384
40716,53390
40714,53408
40710,53429
40713,53406
40706,53431
40721,53423
40723,53434
40727,53431
40717,53429
40711,53449
40718,53437
40711,53421
40675,53350
40642,53262
40628,53141
40618,53082
40601,52999
40562,52954
40543,52888
40548,52856
40538,52805
40539,52803
40535,52791
40532,52781
40540,52798
40548,52805
40540,52809
40541,52811
40543,52815
40542,52827
40548,52842
40561,52832
40566,52841
40554,52845
40556,52854
40571,52876
40574,52882
40600,52904
40594,52953
40599,52960
40600,52958
40599,52964
40599,52950
40579,52952
40588,52943
40570,52926
40591,52911
40560,52888
40579,52897
40565,52885
40571,52877
40573,52867
40565,52882
40565,52865
40560,52886
40560,52882
40584,52881
40569,52899
40579,52897
40571,52918
40592,52919
40586,52916
40592,52919
40602,52947
40588,52953
40600,52968
40615,52967
40591,52984
40603,52991
40611,52997
40598,52999
40616,53015
40624,53026
40639,53008
40621,53040
40622,53050
40640,53044
40631,53055
40628,53070
40640,53065
40639,53077
40628,53076
40638,53085
40624,53099
40651,53103
40650,53116
40634,53117
40638,53130
40647,53113
40644,53137
40655,53136
40653,53126
40653,53143
40665,53158
40648,53171
40660,53163
40672,53163
40657,53179
40665,53177
40676,53195
40667,53191
40668,53191
40671,53198
40665,53219
40671,53215
40660,53221
40672,53231
40667,53235
40677,53243
40686,53241
40680,53262
40683,53260
40685,53275
40695,53268
40701,53286
40683,53303
40695,53309
40696,53292
40704,53315
40714,53319
40706,53333
40716,53331
40707,53343
40700,53335
40716,53364
40717,53357
40725,53373
40733,53366
40712,53378
40724,53392
40718,53389
40720,53394
40722,53410
40728,53421
40742,53411
40716,53415
40746,53426
40728,53426
40727,53421
40742,53440
40750,53455
40738,53438
40733,53429
40724,53454
40737,53450
40748,53471
40730,53473
40743,53484
40745,53496
40755,53503
40754,53505
40741,53506
40769,53520
40765,53513
40746,53490
40737,53421
40674,53297
40620,53156
40589,53006
40549,52860
40505,52736
40486,52672
40473,52564
40458,52584
40459,52545
40446,52510
40451,52496
40446,52520
40438,52526
40453,52521
40453,52520
40448,52530
40462,52533
40454,52525
40461,52529
40452,52556
40461,52539
40471,52528
40457,52483
40456,52493
40454,52517
40469,52547
40479,52559
40489,52573
40492,52585
40476,52583
40488,52593
40489,52580
40496,52570
40486,52558
40464,52555
40462,52541
40434,52525
40451,52510
40462,52498
40461,52485
40442,52504
40449,52496
40470,52502
40458,52503
40445,52492
40456,52513
40458,52520
40463,52510
40464,52536
40462,52540
40451,52519
40463,52534
40476,52558
40481,52546
40479,52559
40474,52575
40485,52574
40492,52592
40480,52594
40485,52607
40479,52606
40511,52611
40504,52639
40509,52637
40496,52638
40497,52662
40508,52661
40509,52650
40510,52670
40507,52676
40512,52671
40513,52698
40519,52694
40519,52716
40515,52706
40525,52727
40519,52720
40514,52736
40537,52748
40526,52755
40530,52762
40533,52777
40548,52773
40540,52773
40551,52783
40549,52794
40545,52799
40548,52824
40544,52821
40553,52814
40544,52838
40547,52827
40556,52854
40556,52850
40566,52855
40554,52857
40566,52871
40567,52903
40578,52900
40571,52902
40572,52907
40574,52928
40588,52936
40604,52933
40577,52937
40583,52952
40587,52967
40599,52977
40600,52992
40605,53001
40610,53011
40611,52995
40615,53016
40616,53040
40618,53037
40616,53047
40629,53050
40626,53063
40621,53080
40620,53086
40618,53083
40631,53082
40629,53096
40625,53102
40626,53112
40623,53112
40635,53135
40645,53131
40642,53143
40635,53141
40641,53167
40648,53163
40646,53181
40645,53199
40650,53204
40652,53202
40662,53206
40660,53226
40666,53224
40656,53224
40645,53182
40626,53155
40587,53028
40567,52901
40512,52757
40456,52634
40447,52530
40437,52464
40386,52394
40395,52370
40393,52351
40380,52341
40387,52324
40382,52323
40385,52346
40387,52345
40387,52346
40414,52373
40405,52354
40404,52361
40410,52379
40406,52381
40403,52380
40406,52380
40413,52371
40409,52381
40411,52400
40415,52416
40427,52424
40430,52426
40431,52436
40429,52461
40434,52461
40435,52472
40427,52464
40429,52444
40434,52436
40434,52431
40427,52418
40411,52390
40409,52391
40409,52375
40417,52376
40415,52378
40413,52369
40419,52370
40407,52382
40409,52377
40426,52393
40415,52392
40417,52405
40421,52416
40414,52434
40435,52424
40428,52441
40433,52454
40437,52459
40449,52461
40438,52473
40444,52488
40465,52489
40455,52487
40461,52506
40477,52497
40479,52540
40463,52537
40463,52545
40484,52558
40474,52559
40467,52576
40464,52581
40482,52587
40463,52592
40486,52599
40485,52618
40489,52611
40481,52635
40494,52640
40490,52628
40494,52644
40501,52654
40503,52661
40502,52668
40514,52678
40509,52675
40504,52677
40515,52691
40516,52716
40512,52702
40505,52714
40525,52718
40516,52734
40525,52751
40544,52745
40526,52755
40542,52773
40539,52778
40541,52782
40540,52774
40536,52790
40544,52819
40550,52823
40553,52837
40565,52831
40563,52852
40568,52871
40558,52868
40572,52887
40570,52889
40569,52905
40578,52902
40582,52925
40593,52928
40585,52932
40588,52958
40587,52956
40596,52931
40600,52965
40593,52974
40605,52993
40607,52996
40602,53006
40603,53019
40614,53038
40610,53024
40614,53046
40648,53067
40625,53075
40621,53073
40625,53081
40639,53104
40630,53112
40623,53106
40616,53042
40579,52943
40547,52843
40498,52694
40458,52581
40429,52483
40418,52392
40383,52347
40395,52316
40398,52305
40398,52279
40386,52292
40385,52284
40350,52276
40378,52301
40384,52298
40402,52330
40403,52321
40416,52335
40410,52342
40416,52359
40404,52361
40414,52357
40429,52358
40421,52379
40412,52368
40432,52395
40424,52404
40439,52406
40424,52440
40445,52458
40454,52470
40453,52456
40444,52478
40445,52458
40438,52446
40435,52439
40432,52424
40442,52410
40432,52400
40428,52406
40425,52412
40428,52383
40426,52404
40439,52414
40433,52402
40436,52424
40441,52428
40447,52430
40449,52458
40451,52445
40450,52466
40472,52462
40453,52483
40460,52473
40459,52494
40470,52503
40469,52522
40478,52536
40477,52557
40478,52552
40478,52571
40483,52593
40491,52599
40488,52611
40504,52606
40492,52618
40508,52626
40505,52637
40510,52644
40511,52652
40507,52664
40524,52683
40513,52686
40512,52683
40518,52701
40529,52717
40533,52718
40526,52734
40546,52738
40546,52735
40544,52760
40532,52751
40548,52773
40560,52795
40553,52804
40555,52815
40566,52818
40549,52840
40570,52835
40560,52815
40562,52828
40564,52853
40557,52858
40567,52872
40579,52879
40585,52889
40594,52890
40589,52920
40589,52916
40585,52928
40597,52951
40586,52951
40609,52950
40606,52966
40619,52995
40616,52988
40630,52994
40623,53012
40631,53020
40620,53038
40628,53055
40638,53051
40627,53069
40644,53060
40651,53090
40641,53090
40644,53077
40652,53104
40648,53095
40658,53132
40650,53143
40660,53136
40675,53152
40684,53167
40672,53203
40684,53199
40690,53203
40686,53206
40678,53221
40684,53229
40685,53213
40679,53201
40661,53142
40621,53046
40587,52906
40532,52758
40492,52627
40479,52522
40446,52456
40423,52422
40414,52367
40413,52374
40418,52367
40409,52354
40429,52365
40437,52391
40440,52397
40431,52411
40428,52421
40449,52428
40441,52448
40469,52456
40463,52471
40467,52475
40473,52487
40463,52476
40460,52473
40474,52503
40474,52494
40490,52511
40496,52545
40511,52540
40488,52573
40515,52570
40502,52588
40498,52571
40495,52588
40504,52562
40490,52551
40487,52552
40488,52522
40469,52540
40474,52525
40485,52517
40483,52512
40465,52526
40475,52527
40487,52533
40493,52542
40496,52553
40483,52550
40489,52569
40489,52562
40498,52585
40504,52602
40503,52605
40498,52611
40519,52621
40516,52639
40528,52650
40523,52666
40528,52671
40536,52694
40544,52686
40546,52712
40534,52717
40545,52733
40540,52747
40552,52746
40555,52764
40563,52787
40563,52780
40562,52792
40571,52806
40574,52806
40588,52826
40579,52829
40592,52826
40584,52840
40587,52861
40586,52856
40589,52864
40590,52880
40602,52890
40590,52903
40611,52894
40587,52906
40604,52917
40607,52915
40611,52930
40593,52950
40627,52947
40608,52971
40615,52977
40614,52967
40610,52961
40631,52991
40631,53004
40634,52998
40635,53012
40636,53018
40649,53031
40657,53006
40664,53047
40643,53054
40662,53068
40648,53071
40659,53083
40660,53104
40674,53095
40669,53114
40669,53112
40694,53144
40683,53125
40666,53133
40691,53164
40676,53180
40682,53204
40696,53192
40697,53192
40692,53204
40717,53233
40705,53218
40717,53254
40711,53253
40711,53263
40705,53266
40709,53262
40727,53264
40693,53207
40680,53101
40609,52966
40566,52841
40527,52700
40494,52596
40486,52549
40479,52506
40478,52477
40463,52445
40466,52455
40474,52455
40470,52481
40486,52490
40500,52509
40501,52538
40504,52568
40520,52568
40533,52585
40527,52614
40539,52638
40549,52635
40549,52654
40550,52655
40536,52666
40545,52701
40554,52717
40572,52735
40591,52758
40593,52783
40590,52787
40602,52785
40588,52795
40589,52776
40575,52766
40571,52751
40557,52730
40547,52703
40561,52689
40555,52704
40558,52697
40560,52680
40555,52686
40573,52678
40558,52697
40573,52703
40563,52721
40561,52735
40575,52746
40573,52758
40588,52766
40588,52780
40599,52796
40598,52814
40609,52832
40595,52835
40620,52856
40603,52849
40617,52886
40640,52888
40632,52890
40637,52907
40619,52918
40628,52952
40631,52929
40635,52956
40641,52953
40642,52972
40652,52970
40649,52990
40656,52999
40649,53004
40668,53016
40667,53035
40664,53034
40669,53037
40669,53048
40676,53064
40681,53053
40674,53073
40681,53086
40675,53093
40683,53095
40682,53107
40709,53117
40691,53118
40704,53147
40711,53142
40705,53160
40711,53157
40704,53159
40712,53172
40713,53187
40729,53196
40720,53199
40723,53194
40709,53223
40727,53234
40732,53234
40727,53241
40742,53245
40736,53244
40733,53240
40727,53254
40739,53279
40741,53251
40747,53283
40751,53301
40763,53314
40764,53326
40758,53326
40767,53337
40770,53342
40766,53357
40779,53377
40766,53378
40768,53381
40772,53407
40784,53386
40775,53385
40757,53322
40730,53236
40671,53087
40630,52929
40599,52802
40559,52675
40530,52595
40509,52541
40511,52504
40493,52467
40515,52477
40485,52476
40503,52468
40514,52486
40507,52511
40517,52515
40513,52526
40526,52554
40544,52572
40534,52565
40544,52587
40530,52590
40534,52606
40549,52603
40569,52614
40558,52613
40556,52625
40568,52647
40565,52675
40578,52677
40574,52684
40585,52720
40596,52734
40598,52744
40591,52710
40593,52729
40577,52712
40586,52706
40576,52681
40558,52680
40566,52652
40565,52667
40579,52657
40566,52650
40563,52650
40580,52669
40580,52673
40587,52708
40576,52700
40589,52697
40590,52710
40596,52723
40604,52734
40600,52746
40609,52766
40611,52779
40623,52794
40636,52814
40640,52831
40631,52820
40646,52841
40643,52872
40649,52886
40654,52885
40657,52909
40669,52935
40671,52921
40674,52940
40682,52945
40667,52958
40665,52978
40671,52974
40674,52986
40679,52990
40684,52997
40682,53001
40690,53018
40699,53031
40699,53017
40695,53037
40710,53057
40715,53068
40708,53070
40705,53084
40719,53079
40711,53075
40718,53108
40726,53126
40733,53123
40729,53130
40721,53146
40736,53163
40738,53164
40758,53161
40756,53158
40736,53183
40749,53185
40747,53192
40752,53208
40763,53208
40764,53218
40753,53220
40761,53232
40775,53218
40769,53247
40769,53261
40782,53278
40778,53284
40781,53280
40787,53286
40786,53310
40787,53285
40785,53311
40811,53315
40794,53331
40817,53334
40795,53344
40816,53363
40809,53421
40820,53393
40824,53377
40818,53381
40821,53403
40834,53412
40823,53423
40813,53415
40833,53416
40815,53397
40794,53331
40788,53254
40725,53101
40693,52948
40626,52810
40572,52704
40761,53232
40549,52556
40558,52537
40544,52531
40545,52519
40561,52539
40564,52539
40562,52558
40575,52575
40572,52611
40586,52617
40608,52641
40613,52678
40617,52693
40611,52693
40628,52713
40627,52712
40623,52736
40649,52757
40634,52758
40655,52789
40667,52801
40679,52829
40662,52859
40683,52877
40672,52888
40673,52892
40684,52863
40679,52886
40671,52857
40674,52826
40657,52823
40652,52797
40655,52773
40661,52781
40652,52764
40658,52778
40648,52776
40659,52801
40677,52797
40661,52791
40669,52809
40682,52825
40685,52840
40697,52860
40704,52869
40693,52877
40710,52897
40700,52898
40700,52923
40716,52940
40710,52941
40705,52964
40714,52946
40747,52981
40732,52980
40733,52997
40737,53028
40740,53041
40727,53033
40757,53042
40745,53060
40749,53078
40749,53072
40753,53096
40757,53100
40786,53107
40759,53107
40766,53105
40775,53127
40793,53126
40785,53142
40791,53157
40801,53151
40787,53167
40802,53171
40790,53179
40790,53193
40809,53192
40797,53208
40810,53225
40817,53217
40809,53243
40811,53243
40809,53243
40817,53262
40813,53263
40816,53287
40826,53275
40824,53273
40833,53290
40842,53314
40837,53315
40830,53309
40830,53305
40836,53333
40837,53329
40842,53335
40845,53348
40851,53357
40855,53370
40858,53376
40855,53377
40860,53397
40865,53421
40869,53418
40884,53416
40895,53433
40868,53450
40881,53457
40890,53463
40868,53438
40860,53428
40836,53356
40801,53231
40746,53077
40715,52939
40673,52828
40647,52714
40633,52629
40622,52590
40609,52572
40594,52571
40608,52570
40612,52579
40618,52577
40616,52612
40635,52639
40639,52655
40649,52663
40653,52689
40674,52712
40680,52734
40693,52757
40692,52743
40689,52757
40695,52765
40706,52782
40699,52792
40712,52824
40719,52834
40722,52862
40721,52901
40726,52898
40733,52915
40737,52921
40730,52923
40734,52914
40735,52906
40729,52889
40738,52874
40719,52865
40712,52843
40709,52839
40714,52825
40709,52822
40719,52842
40717,52849
40712,52857
40727,52868
40735,52872
40739,52888
40746,52914
40754,52921
40755,52936
40759,52961
40765,52982
40773,52975
40771,52998
40775,53010
40773,53019
40794,53051
40767,53031
40797,53079
40781,53087
40798,53088
40796,53103
40813,53103
40794,53121
40816,53125
40823,53137
40818,53154
40829,53167
40812,53164
40822,53185
40830,53196
40822,53186
40835,53198
40838,53206
40841,53207
40845,53233
40845,53230
40855,53258
40864,53262
40869,53262
40857,53286
40853,53279
40855,53280
40859,53289
40872,53319
40863,53304
40868,53310
40878,53325
40878,53331
40890,53355
40878,53343
40887,53371
40887,53363
40884,53359
40897,53378
40877,53381
40893,53399
40893,53400
40894,53405
40902,53426
40894,53428
40918,53447
40915,53438
40899,53438
40910,53439
40901,53454
40913,53454
40929,53472
40932,53495
40915,53498
40928,53499
40928,53522
40945,53514
40942,53541
40970,53560
40936,53545
40947,53572
40962,53571
40946,53565
40895,53450
40866,53301
40800,53127
40758,52986
40730,52885
40689,52781
40677,52719
40663,52658
40666,52653
40652,52645
40669,52637
40691,52636
40682,52657
40686,52677
40684,52691
40678,52713
40703,52732
40722,52771
40716,52796
40732,52790
40733,52822
40738,52829
40738,52829
40765,52855
40739,52850
40753,52866
40762,52885
40776,52917
40765,52919
40777,52950
40789,52971
40786,52989
40778,52994
40788,52980
40789,52998
40777,52972
40792,52975
40786,52961
40787,52946
40768,52936
40763,52930
40763,52929
40766,52928
40781,52938
40772,52927
40770,52965
40788,52963
40780,52964
40803,52975
40804,52985
40790,53019
40804,53027
40791,53029
40808,53057
40834,53052
40821,53070
40827,53089
40819,53084
40846,53112
40837,53126
40841,53138
40850,53150
40850,53162
40861,53184
40863,53185
40873,53195
40872,53217
40859,53213
40870,53222
40874,53238
40886,53234
40879,53247
40876,53262
40882,53252
40879,53292
40900,53287
40912,53283
40891,53296
40888,53311
40894,53306
40918,53324
40902,53351
40907,53343
40913,53354
40907,53356
40922,53378
40920,53380
40920,53391
40922,53409
40916,53420
40924,53410
40926,53394
40928,53428
40933,53424
40933,53418
40938,53439
40928,53455
40939,53453
40944,53454
40951,53463
40936,53477
40941,53463
40965,53486
40950,53496
40951,53501
40971,53516
40954,53517
40955,53512
40963,53520
40964,53547
40964,53559
40965,53565
40977,53569
40969,53566
40972,53589
40981,53595
40976,53602
40976,53604
40976,53622
41004,53621
40992,53616
40991,53640
40990,53603
40959,53556
40930,53480
40888,53363
40854,53199
40807,53055
40770,52951
40756,52869
40729,52804
40710,52777
40710,52772
40718,52775
40744,52793
40746,52803
40765,52828
40755,52853
40775,52884
40779,52927
40798,52946
40802,52973
40808,53000
40811,53026
40813,53026
40829,53040
40824,53065
40838,53072
40847,53089
40853,53119
40846,53148
40866,53168
40879,53182
40869,53206
40868,53223
40881,53194
40868,53202
40872,53197
40868,53185
40862,53151
40853,53140
40847,53124
40842,53102
40848,53100
40834,53101
40840,53103
40850,53106
40850,53121
40856,53127
40850,53156
40855,53151
40861,53160
40873,53197
40881,53208
40884,53209
40874,53234
40893,53253
40892,53250
40897,53288
40898,53284
40902,53299
40905,53322
40909,53307
40925,53348
40933,53347
40930,53362
40919,53378
40925,53376
40942,53391
40926,53392
40938,53402
40942,53413
40935,53406
40950,53418
40940,53441
40955,53450
40955,53443
40961,53455
40948,53477
40961,53474
40964,53497
40962,53506
40958,53480
40963,53518
40968,53519
40971,53530
40971,53545
40976,53535
40989,53550
40977,53557
40986,53551
40971,53572
40987,53572
40978,53584
40990,53597
40981,53583
40984,53567
40993,53610
40995,53626
40978,53606
40999,53610
40985,53627
40985,53628
40998,53638
41002,53647
40994,53651
40994,53652
41016,53671
41008,53683
41010,53688
41010,53703
41015,53696
41019,53713
41028,53693
41026,53701
41002,53681
40992,53614
40960,53525
40900,53396
40864,53224
40828,53108
40795,53011
40761,52929
40750,52862
40731,52818
40744,52829
40735,52818
40721,52828
40742,52852
40754,52898
40773,52871
40782,52877
40776,52922
40782,52941
40808,52980
40808,53005
40815,53018
40828,53040
40818,53045
40818,53032
40851,53058
40857,53059
40823,53086
40814,53109
40843,53129
40851,53156
40856,53178
40869,53177
40865,53181
40867,53175
40855,53176
40860,53163
40859,53165
40861,53141
40841,53127
40825,53132
40848,53123
40827,53126
40845,53127
40841,53118
40856,53130
40848,53156
40841,53152
40863,53157
40861,53172
40868,53193
40863,53198
40885,53211
40880,53235
40876,53230
40891,53263
40909,53265
40895,53294
40889,53296
40898,53310
40906,53327
40911,53338
40925,53342
40915,53362
40929,53366
40913,53389
40925,53390
40928,53394
40938,53413
40940,53430
40940,53426
40952,53445
40939,53442
40946,53464
40961,53454
40951,53470
40958,53476
40963,53492
40963,53488
40951,53496
40955,53513
40965,53527
40967,53526
40977,53546
40976,53548
40963,53563
40966,53569
40982,53564
40988,53574
40985,53564
40968,53592
40980,53592
40992,53590
40981,53616
40978,53618
41000,53605
40993,53623
41004,53636
40994,53640
40990,53658
40994,53636
41005,53664
41014,53662
40992,53670
41019,53687
40996,53690
41012,53689
41003,53697
41025,53693
41017,53708
41011,53694
41016,53732
41031,53743
41024,53750
41021,53754
41022,53751
41025,53761
41029,53774
41042,53791
41034,53799
41018,53791
41028,53775
41021,53744
40997,53689
40956,53567
40913,53430
40871,53284
40820,53135
40798,53069
40767,53004
40757,52925
40755,52910
40753,52911
40752,52897
40758,52932
40769,52956
40783,52970
40791,52985
40818,53027
40814,53061
40820,53083
40824,53078
40845,53116
40842,53133
40844,53157
40845,53164
40864,53178
40870,53185
40870,53199
40877,53230
40884,53263
40886,53275
40889,53289
40906,53324
40882,53316
40897,53334
40902,53346
40903,53335
40887,53295
40890,53283
40875,53249
40874,53243
40873,53225
40876,53229
40877,53210
40873,53217
40863,53225
40889,53226
40872,53249
40884,53253
40883,53256
40884,53268
40885,53291
40888,53296
40890,53318
40886,53330
40907,53350
40909,53369
40912,53374
40922,53373
40920,53400
40910,53399
40914,53411
40920,53427
40918,53438
40935,53461
40948,53452
40938,53470
40934,53486
40947,53494
40950,53494
40947,53503
40949,53512
40959,53518
40971,53545
40967,53544
40959,53542
40973,53549
40958,53568
40962,53572
40966,53583
40972,53580
40980,53595
40981,53600
40980,53617
40981,53602
40978,53632
40989,53609
40995,53634
40998,53648
40993,53657
40986,53652
40993,53666
40992,53659
40989,53680
41003,53678
40991,53685
41004,53675
40991,53696
40991,53709
41008,53717
41013,53721
41006,53723
40995,53726
41004,53728
41009,53728
41004,53739
41011,53758
41013,53769
41015,53764
41000,53789
41032,53786
41015,53789
41016,53808
41019,53810
41013,53811
41033,53830
41027,53830
41032,53822
41016,53776
40985,53699
40944,53601
40903,53455
40845,53294
40817,53192
40794,53063
40773,53037
40764,52985
40756,52970
40752,52955
40753,52967
40761,52977
40760,52982
40787,53013
40793,53049
40829,53072
40795,53103
40816,53139
40813,53150
40833,53169
40844,53237
40851,53235
40862,53209
40864,53183
40864,53246
40879,53248
40875,53296
40879,53327
40893,53337
40901,53370
40892,53364
40906,53356
40918,53364
40915,53361
40888,53331
40859,53334
40817,53192
40857,53312
40869,53283
40869,53280
40859,53279
40867,53287
40864,53287
40875,53278
40863,53294
40874,53314
40879,53317
40886,53332
40883,53340
40901,53343
40901,53373
40891,53384
40915,53402
40911,53415
40910,53427
40921,53443
40909,53453
40922,53448
40930,53475
40923,53495
40930,53496
40927,53510
40935,53511
40934,53532
40950,53535
40940,53546
40951,53555
40944,53557
40942,53573
40957,53586
40952,53612
40957,53598
40959,53604
40971,53621
40968,53631
40967,53630
40962,53633
40975,53630
40965,53658
40982,53659
40976,53641
40970,53676
40990,53683
40968,53695
40985,53697
40983,53686
40990,53716
40972,53709
40982,53723
40986,53729
40986,53727
40996,53745
40998,53733
40990,53750
41000,53748
40998,53756
41010,53784
40990,53770
41009,53767
41010,53793
41004,53787
41007,53792
41016,53807
41010,53805
41007,53826
41008,53842
41014,53836
41021,53841
41028,53857
41022,53864
41017,53861
41012,53887
41033,53884
41020,53867
41026,53866
41000,53817
40965,53731
40934,53617
40893,53456
40846,53317
40807,53215
40780,53135
40763,53065
40762,53036
40766,53011
40751,53003
40762,53025
40765,53038
40763,53067
40776,53079
40799,53112
40799,53147
40817,53172
40813,53186
40839,53207
40841,53221
40838,53249
40847,53247
40842,53278
40859,53274
40857,53299
40844,53319
40869,53345
40873,53338
40877,53370
40888,53414
40883,53399
40889,53419
40895,53414
40899,53406
40891,53403
40883,53398
40877,53375
40879,53365
40862,53355
40871,53347
40852,53327
40849,53323
40850,53337
40862,53331
40874,53328
40862,53349
40867,53343
40876,53368
40877,53367
40885,53394
40890,53415
40884,53406
40887,53431
40906,53439
40905,53443
40897,53468
40908,53479
40901,53491
40917,53512
40920,53516
40918,53536
40917,53516
40914,53535
40927,53547
40918,53556
40939,53575
40928,53576
40933,53583
40935,53594
40948,53604
40951,53604
40942,53620
40946,53630
40960,53624
40947,53656
40954,53650
40965,53658
40950,53655
40955,53667
40948,53690
40958,53690
40973,53683
40967,53704
40957,53702
40968,53714
40966,53723
40958,53728
40957,53731
40965,53745
40978,53753
40971,53743
40969,53765
40988,53765
40988,53763
40979,53787
40973,53774
40977,53784
40985,53789
40986,53807
41002,53797
40993,53832
41008,53834
40979,53827
40995,53845
40997,53851
40997,53843
40988,53845
40988,53834
40988,53806
40972,53781
40933,53681
40897,53561
40860,53399
40814,53295
40786,53193
40775,53131
40762,53091
40756,53044
40760,53050
40749,53038
40757,53053
40771,53083
40786,53106
40774,53135
40788,53143
40795,53173
40809,53200
40814,53230
40822,53248
40821,53272
40840,53285
40844,53294
40840,53303
40860,53315
40854,53351
40863,53357
40862,53367
40854,53386
40874,53423
40879,53418
40877,53443
40887,53454
40885,53452
40887,53443
40868,53432
40878,53422
40858,53397
40862,53371
40863,53380
40841,53368
40845,53356
40844,53354
40840,53375
40854,53382
40840,53407
40850,53370
40861,53382
40876,53420
40883,53433
40870,53440
40866,53460
40883,53478
40894,53475
40875,53499
40908,53507
40911,53519
40923,53537
40899,53553
40916,53561
40854,53386
40895,53582
40905,53581
40920,53592
40939,53607
40926,53620
40933,53629
40933,53636
40939,53637
40939,53648
40940,53653
40928,53667
40936,53689
40936,53693
40939,53686
40941,53708
40957,53706
40957,53720
40951,53731
40952,53722
40948,53728
40953,53748
40953,53744
40962,53761
40956,53766
40959,53765
40965,53770
40971,53761
40969,53796
40975,53788
40967,53798
40967,53784
40979,53800
40963,53797
40968,53804
40963,53828
40958,53832
40977,53836
40968,53828
40971,53850
40964,53844
40978,53856
40989,53856
40981,53859
40984,53882
40994,53896
40994,53896
40999,53897
40990,53914
40987,53916
40997,53907
40974,53862
40951,53800
40916,53690
40886,53560
40828,53419
40777,53292
40756,53197
40755,53155
40722,53095
40729,53066
40716,53059
40735,53059
40740,53086
40754,53103
40753,53117
40767,53148
40780,53167
40787,53205
40781,53219
40798,53241
40805,53263
40812,53271
40818,53296
40822,53297
40831,53301
40821,53314
40829,53330
40837,53352
40840,53370
40846,53393
40861,53402
40861,53438
40872,53452
40862,53461
40857,53450
40869,53451
40861,53441
40850,53429
40859,53418
40835,53398
40845,53378
40832,53369
40838,53365
40838,53370
40839,53362
40829,53384
40846,53371
40839,53391
40854,53405
40839,53423
40839,53418
40855,53466
40878,53439
40872,53463
40865,53476
40873,53476
40864,53499
40877,53516
40889,53520
40887,53534
40898,53551
40891,53551
40894,53573
40892,53585
40905,53598
40900,53603
40911,53618
40911,53621
40909,53623
40913,53638
40929,53643
40913,53650
40913,53670
40891,53656
40915,53693
40930,53681
40928,53693
40939,53710
40920,53713
40924,53714
40922,53732
40929,53744
40918,53729
40929,53740
40939,53738
40939,53762
40949,53770
40938,53776
40953,53766
40943,53779
40937,53790
40944,53793
40954,53812
40956,53800
40952,53809
40949,53820
40952,53822
40951,53837
40951,53853
40951,53839
40956,53848
40950,53844
40968,53868
40947,53860
40967,53868
40948,53891
40970,53890
40959,53913
40971,53909
40975,53917
40967,53936
40974,53922
40963,53933
40984,53921
40954,53889
40952,53866
40944,53784
40890,53670
40854,53542
40798,53397
40760,53292
40736,53226
40737,53170
40738,53121
40729,53115
40718,53128
40746,53133
40732,53137
40764,53166
40780,53211
40786,53218
40796,53243
40798,53282
40817,53325
40827,53340
40838,53370
40840,53379
40830,53391
40839,53412
40843,53432
40846,53459
40860,53480
40864,53500
40877,53511
40874,53541
40867,53574
40873,53571
40888,53576
40864,53554
40868,53553
40869,53537
40864,53511
40857,53495
40832,53482
40856,53460
40836,53446
40841,53455
40848,53463
40844,53469
40844,53460
40850,53479
40841,53482
40844,53481
40863,53506
40869,53529
40863,53533
40868,53538
40872,53574
40883,53584
40897,53544
40883,53592
40893,53612
40892,53624
40893,53626
40904,53656
40902,53653
40914,53665
40901,53672
40909,53676
40942,53691
40919,53706
40927,53708
40915,53734
40923,53727
40916,53773
40912,53747
40931,53756
40944,53731
40940,53765
40930,53773
40926,53784
40942,53779
40918,53800
40936,53816
40932,53810
40956,53819
40953,53830
40970,53838
40932,53824
40919,53841
40883,53584
40930,53859
40938,53851
40942,53868
40960,53872
40948,53881
40949,53893
40957,53890
40959,53891
40951,53899
40959,53907
40966,53908
40954,53920
40958,53928
40974,53928
40975,53937
40954,53965
40976,53960
40964,53974
40985,53983
40953,53966
40965,53954
40964,53928
40918,53859
40891,53773
40867,53601
40812,53471
40778,53354
40759,53254
40745,53211
40747,53154
40729,53135
40729,53121
40727,53128
40728,53143
40725,53163
40758,53195
40765,53206
40778,53215
40756,53250
40783,53285
40790,53292
40795,53303
40789,53308
40799,53317
40803,53349
40797,53353
40813,53370
40806,53390
40812,53400
40805,53425
40820,53453
40831,53488
40835,53504
40850,53496
40844,53515
40849,53494
40838,53488
40830,53498
40839,53472
40828,53468
40816,53462
40820,53450
40811,53441
40822,53441
40836,53447
40814,53440
40826,53440
40820,53444
40829,53463
40828,53463
40827,53482
40831,53497
40835,53501
40852,53523
40857,53523
40852,53542
40856,53548
40852,53566
40855,53571
40872,53607
40869,53600
40867,53603
40863,53638
40869,53638
40886,53645
40879,53655
40876,53686
40875,53697
40887,53686
40891,53699
40884,53704
40895,53727
40889,53719
40906,53740
40898,53742
40895,53746
40888,53767
40901,53774
40899,53754
40901,53782
40900,53790
40908,53789
40901,53799
40914,53812
40906,53819
40918,53815
40925,53836
40911,53838
40925,53849
40912,53848
40926,53843
40925,53861
40928,53868
40941,53860
40934,53891
40921,53881
40941,53896
40928,53895
40944,53906
40935,53902
40938,53910
40926,53919
40936,53918
40939,53924
40937,53932
40940,53947
40933,53957
40943,53968
40944,53963
40952,53977
40939,53971
40954,53965
40935,53985
40950,54000
40941,54018
40957,54000
40941,54007
40956,54017
40956,53993
40928,53945
40901,53886
40872,53766
40851,53636
40802,53494
40750,53375
40738,53290
40723,53241
40728,53208
40722,53176
40727,53185
40715,53194
40729,53213
40737,53229
40740,53259
40754,53295
40754,53312
40777,53353
40791,53362
40791,53384
40792,53413
40800,53416
40800,53441
40808,53457
40814,53461
40805,53478
40816,53500
40835,53512
40827,53554
40840,53554
40829,53587
40837,53595
40847,53596
40842,53608
40842,53599
40834,53586
40828,53569
40817,53556
40836,53545
40824,53535
40814,53511
40820,53521
40836,53503
40805,53513
40813,53510
40807,53512
40826,53527
40826,53535
40812,53537
40834,53560
40835,53584
40848,53580
40832,53600
40846,53609
40839,53625
40841,53638
40854,53658
40843,53666
40855,53650
40864,53685
40862,53698
40874,53700
40889,53707
40875,53711
40869,53713
40887,53715
40880,53739
40865,53743
40891,53758
40883,53760
40886,53778
40882,53782
40875,53789
40886,53801
40907,53830
40892,53823
40900,53819
40901,53822
40895,53830
40903,53827
40906,53859
40899,53834
40915,53875
40915,53861
40913,53864
40914,53890
40909,53885
40909,53892
40910,53898
40923,53881
40913,53911
40904,53899
40923,53940
40911,53936
40929,53930
40928,53926
40927,53916
40936,53939
40922,53961
40928,53966
40923,53976
40937,53989
40926,53994
40939,54003
40959,54002
40949,54024
40956,54011
40937,54034
40924,54044
40922,54025
40932,54025
40926,54012
40907,53949
40894,53855
40832,53741
40818,53599
40767,53463
40752,53371
40726,53312
40716,53251
40709,53214
40717,53207
40710,53204
40728,53217
40722,53224
40735,53254
40735,53279
40752,53303
40756,53324
40758,53360
40764,53365
40763,53393
40784,53419
40784,53404
40785,53430
40804,53466
40797,53472
40803,53482
40804,53499
40830,53535
40823,53552
40830,53578
40840,53581
40846,53612
40851,53612
40834,53635
40832,53630
40836,53600
40839,53594
40827,53585
40822,53593
40824,53544
40819,53552
40812,53535
40810,53535
40802,53542
40807,53535
40801,53550
40823,53562
40826,53560
40823,53570
40815,53597
40851,53600
40822,53616
40833,53637
40842,53662
40840,53646
40840,53671
40850,53668
40862,53688
40856,53711
40851,53718
40857,53732
40876,53731
40854,53753
40852,53770
40885,53760
40876,53789
40881,53777
40865,53782
40880,53815
40878,53814
40880,53810
40887,53827
40886,53850
40885,53845
40876,53847
40895,53862
40885,53858
40886,53857
40895,53876
40894,53890
40896,53900
40911,53910
40900,53906
40896,53901
40888,53918
40900,53926
40901,53932
40896,53936
40899,53954
40904,53965
40918,53957
40910,53978
40909,53973
40917,53977
40917,53977
40915,53980
40912,53985
40929,54006
40919,53988
40916,54003
40922,54008
40915,54034
40930,54031
40921,54044
40922,54041
40914,54039
40934,54060
40925,54070
40929,54068
40919,54077
40931,54090
40923,54101
40933,54093
40916,54079
40935,54068
40911,54034
40893,53941
40854,53863
40828,53709
40775,53573
40756,53465
40728,53381
40723,53335
40709,53276
40719,53249
40705,53251
40704,53273
40712,53278
40709,53296
40724,53330
40740,53356
40744,53378
40760,53410
40770,53435
40763,53454
40781,53469
40781,53503
40772,53519
40799,53515
40793,53534
40809,53546
40802,53564
40820,53576
40812,53609
40827,53634
40828,53652
40828,53667
40851,53675
40831,53673
40820,53672
40825,53665
40828,53647
40819,53644
40812,53622
40811,53626
40802,53608
40798,53607
40800,53588
40794,53590
40797,53616
40809,53601
40807,53618
40798,53626
40814,53614
40819,53632
40820,53638
40810,53676
40818,53673
40838,53693
40832,53693
40845,53707
40819,53712
40842,53736
40846,53755
40847,53763
40838,53775
40835,53787
40872,53790
40860,53797
40861,53802
40859,53818
40866,53808
40871,53840
40883,53837
40854,53838
40865,53866
40865,53861
40871,53875
40871,53861
40871,53882
40888,53885
40879,53894
40887,53889
40882,53915
40887,53907
40872,53931
40885,53921
40880,53928
40877,53933
40888,53950
40911,53966
40887,53943
40877,53953
40877,53960
40889,53982
40901,53993
40902,53978
40901,53998
40881,53990
40894,53996
40894,54001
40906,54022
40890,54062
40897,54011
40918,54030
40893,54039
40907,54054
40906,54042
40905,54055
40915,54065
40904,54072
40927,54075
40917,54101
40905,54098
40918,54088
40935,54093
40911,54078
40870,54045
40888,54017
40853,53906
40818,53800
40782,53663
40714,53405
40700,53335
40700,53320
40690,53291
40682,53291
40699,53300
40695,53315
40708,53327
40719,53364
40725,53394
40775,53398
40756,53417
40740,53451
40729,53489
40767,53495
40745,53513
40775,53527
40767,53530
40784,53549
40783,53579
40790,53581
40804,53615
40792,53643
40804,53662
40815,53675
40807,53697
40827,53708
40820,53711
40825,53705
40816,53702
40822,53707
40820,53678
40800,53670
40811,53656
40812,53654
40788,53629
40795,53628
40782,53647
40809,53639
40794,53645
40801,53655
40793,53649
40800,53666
40796,53684
40808,53693
40810,53720
40805,53709
40811,53718
40831,53749
40828,53746
40832,53756
40842,53773
40849,53796
40832,53800
40835,53815
40832,53809
40836,53816
40854,53855
40846,53852
40857,53859
40846,53883
40846,53880
40854,53882
40853,53890
40882,53896
40859,53906
40865,53922
40859,53932
40849,53931
40860,53916
40873,53931
40879,53947
40865,53959
40875,53954
40872,53980
40878,53970
40884,53994
40898,53998
40869,53989
40878,54013
40879,54004
40880,54013
40884,54013
40888,54022
40885,54040
40898,54039
40892,54044
40870,54053
40887,54053
40898,54050
40888,54066
40893,54086
40896,54088
40904,54074
40901,54076
40893,54098
40896,54100
40909,54106
40909,54123
40901,54136
40900,54143
40902,54128
40907,54134
40902,54152
40912,54154
40911,54157
40914,54158
40919,54159
40911,54160
40891,54130
40891,54092
40871,54029
40828,53893
40806,53768
40760,53623
40733,53514
40707,53443
40692,53400
40689,53349
40680,53332
40683,53338
40704,53361
40689,53368
40706,53390
40720,53416
40718,53432
40724,53457
40754,53489
40749,53517
40754,53534
40750,53551
40766,53579
40758,53576
40774,53598
40768,53605
40778,53616
40778,53649
40807,53671
40769,53701
40806,53718
40813,53722
40814,53748
40791,53761
40811,53749
40802,53748
40802,53746
40807,53741
40801,53723
40791,53718
40787,53700
40788,53683
40776,53683
40782,53674
40797,53678
40788,53679
40782,53695
40783,53689
40781,53687
40786,53707
40782,53735
40805,53739
40802,53752
40803,53753
40810,53768
40814,53763
40811,53797
40820,53792
40822,53805
40829,53824
40842,53844
40843,53852
40821,53850
40834,53870
40829,53881
40834,53884
40831,53882
40844,53908
40842,53906
40831,53893
40832,53915
40842,53924
40824,53936
40848,53942
40860,53960
40847,53948
40846,53951
40857,53970
40852,53976
40863,53979
40840,53993
40857,54001
40860,54006
40856,54009
40859,54014
40856,54014
40867,54037
40862,54036
40856,54031
40874,54062
40870,54043
40877,54062
40851,54059
40876,54066
40864,54057
40873,54073
40868,54091
40859,54100
40869,54091
40865,54108
40872,54108
40875,54105
40878,54106
40872,54140
40884,54125
40868,54123
40867,54137
40880,54151
40881,54155
40877,54159
40890,54172
40877,54161
40881,54177
40883,54144
40860,54111
40849,54030
40829,53943
40765,53816
40741,53691
40725,53571
40700,53493
40677,53456
40690,53411
40670,53385
40680,53381
40686,53395
40687,53423
40713,53448
40719,53459
40713,53495
40723,53514
40746,53553
40751,53580
40748,53593
40759,53617
40763,53645
40769,53712
40791,53693
40780,53731
40794,53734
40786,53742
40800,53741
40809,53777
40803,53821
40801,53834
40795,53820
40810,53829
40805,53814
40801,53825
40803,53821
40790,53805
40812,53796
40785,53758
40768,53766
40690,53411
40771,53755
40780,53744
40802,53779
40780,53776
40788,53766
40796,53772
40792,53784
40794,53803
40796,53809
40798,53813
40784,53829
40814,53852
40807,53876
40805,53863
40827,53893
40817,53908
40801,53903
40833,53920
40824,53931
40833,53930
40824,53935
40827,53965
40839,53953
40832,53956
40837,53982
40835,53980
40823,53980
40845,53992
40830,54014
40847,54019
40843,54006
40849,54022
40853,54033
40848,54032
40846,54048
40850,54044
40849,54053
40849,54087
40867,54078
40845,54088
40865,54093
40873,54094
40846,54099
40850,54106
40858,54128
40860,54131
40872,54123
40864,54118
40857,54128
40869,54152
40870,54145
40864,54150
40854,54160
40857,54152
40864,54161
40857,54169
40869,54165
40878,54194
40875,54182
40865,54192
40872,54196
40869,54219
40875,54235
40882,54214
40872,54225
40880,54224
40884,54228
40881,54213
40869,54175
40849,54134
40824,54017
40787,53902
40738,53756
40719,53625
40684,53537
40675,53475
40670,53435
40661,53402
40653,53390
40665,53410
40661,53420
40669,53432
40679,53436
40683,53459
40703,53502
40700,53497
40701,53539
40717,53551
40713,53584
40720,53598
40707,53611
40727,53614
40730,53637
40725,53646
40728,53680
40748,53658
40751,53733
40769,53719
40763,53757
40752,53768
40788,53768
40787,53798
40775,53781
40773,53787
40772,53776
40763,53764
40761,53788
40757,53753
40762,53747
40753,53729
40748,53742
40759,53733
40752,53735
40739,53738
40747,53738
40752,53741
40761,53753
40758,53762
40768,53781
40764,53783
40766,53811
40763,53821
40774,53840
40777,53833
40778,53856
40797,53867
40795,53878
40779,53876
40798,53905
40805,53912
40788,53913
40807,53936
40793,53934
40790,53949
40820,53946
40800,53966
40819,53965
40800,53977
40811,53988
40820,53990
40811,53999
40829,54004
40813,54007
40828,54021
40837,54034
40816,54025
40818,54049
40814,54053
40825,54048
40825,54047
40829,54071
40810,54075
40848,54067
40836,54088
40837,54087
40834,54110
40830,54113
40843,54104
40840,54123
40826,54121
40822,54129
40835,54133
40837,54126
40842,54132
40849,54164
40852,54159
40842,54165
40842,54164
40842,54158
40836,54172
40864,54169
40862,54178
40855,54191
40847,54185
40853,54204
40844,54223
40849,54216
40858,54232
40859,54228
40861,54244
40857,54245
40869,54236
40865,54245
40860,54226
40857,54205
40823,54157
40791,54062
40797,53960
40738,53821
40689,53689
40681,53600
40671,53519
40651,53483
40643,53447
40645,53440
40645,53456
40658,53463
40678,53502
40675,53519
40670,53534
40681,53553
40686,53592
40712,53607
40711,53631
40724,53665
40707,53677
40725,53693
40720,53706
40739,53725
40749,53733
40735,53773
40754,53785
40746,53811
40773,53836
40758,53855
40775,53858
40779,53872
40768,53878
40772,53877
40768,53862
40760,53868
40769,53820
40756,53830
40750,53828
40752,53811
40751,53800
40742,53812
40732,53794
40746,53800
40749,53810
40747,53798
40767,53819
40757,53819
40752,53836
40758,53877
40759,53878
40763,53884
40773,53895
40777,53859
40786,53892
40770,53930
40780,53928
40774,53943
40788,53942
40785,53969
40795,53974
40783,53964
40814,53972
40817,53996
40788,53986
40798,54010
40768,53862
40785,54023
40801,54035
40812,54049
40814,54045
40796,54072
40809,54055
40801,54085
40813,54064
40812,54072
40815,54083
40816,54093
40813,54092
40810,54102
40823,54110
40825,54131
40830,54125
40802,54135
40815,54139
40821,54140
40833,54141
40821,54142
40820,54163
40829,54159
40826,54171
40824,54172
40826,54185
40818,54187
40811,54179
40820,54194
40813,54201
40833,54207
40821,54200
40842,54208
40835,54220
40838,54224
40844,54243
40829,54231
40845,54238
40836,54222
40818,54193
40806,54139
40772,54067
40745,53943
40706,53793
40680,53680
40655,53581
40631,53522
40640,53482
40636,53461
40624,53450
40620,53458
40652,53453
40637,53488
40658,53496
40653,53523
40671,53550
40674,53594
40694,53617
40684,53629
40693,53665
40697,53663
40699,53696
40707,53694
40726,53711
40722,53723
40718,53737
40740,53759
40748,53774
40750,53816
40749,53807
40739,53857
40748,53872
40759,53867
40752,53861
40753,53859
40741,53843
40733,53856
40738,53830
40746,53824
40729,53807
40730,53794
40722,53803
40714,53791
40725,53802
40721,53791
40728,53822
40735,53828
40730,53812
40726,53845
40737,53845
40740,53843
40740,53864
40752,53898
40752,53884
40764,53898
40756,53918
40744,53922
40759,53938
40765,53940
40773,53959
40761,53967
40763,53990
40777,53996
40776,53993
40794,54017
40773,54023
40779,54024
40780,54028
40775,54033
40781,54048
40800,54033
40785,54052
40793,54067
40779,54059
40785,54059
40789,54085
40780,54107
40793,54095
40783,54098
40812,54102
40799,54123
40790,54117
40810,54120
40796,54131
40801,54136
40802,54151
40795,54153
40808,54158
40802,54172
40804,54161
40802,54173
40803,54184
40789,54179
40812,54195
40802,54196
40800,54194
40799,54194
40827,54211
40817,54205
40793,54216
40811,54210
40814,54235
40808,54235
40814,54249
40819,54261
40811,54255
40815,54273
40838,54276
40808,54253
40808,54244
40798,54202
40793,54130
40756,54033
40715,53912
40680,53765
40664,53663
40624,53573
40616,53499
40595,53482
40625,53452
40612,53440
40618,53466
40606,53471
40632,53486
40641,53524
40651,53517
40646,53563
40645,53577
40668,53609
40650,53629
40662,53645
40665,53668
40686,53675
40693,53690
40685,53718
40688,53722
40698,53723
40701,53765
40712,53778
40701,53799
40721,53814
40711,53858
40720,53844
40722,53854
40722,53845
40732,53867
40716,53849
40720,53834
40723,53834
40715,53823
40711,53794
40686,53802
40708,53777
40690,53795
40710,53794
40711,53797
40713,53797
40719,53806
40709,53826
40703,53819
40723,53843
40711,53830
40718,53852
40713,53855
40720,53870
40721,53891
40738,53894
40731,53900
40735,53939
40740,53920
40746,53941
40733,53951
40752,53973
40744,53972
40732,53998
40751,53980
40757,53999
40757,53989
40750,54008
40763,53995
40754,54006
40758,54014
40760,54052
40746,54037
40761,54043
40769,54064
40756,54058
40765,54067
40771,54083
40780,54074
40767,54083
40773,54083
40771,54103
40771,54119
40776,54103
40762,54103
40772,54107
40784,54119
40778,54143
40787,54136
40781,54143
40778,54157
40774,54149
40774,54167
40802,54173
40806,54160
40804,54179
40772,54166
40594,53489
40590,53509
40605,53515
40629,53540
40630,53569
40644,53604
40644,53634
40657,53661
40666,53678
40650,53702
40642,53724
40673,53748
40683,53759
40678,53766
40686,53789
40700,53807
40713,53841
40707,53862
40724,53879
40734,53899
40719,53907
40726,53921
40721,53913
40719,53911
40709,53896
40718,53879
40708,53877
40707,53864
40705,53852
40698,53830
40692,53836
40708,53852
40696,53831
40679,53841
40693,53833
40691,53852
40699,53846
40703,53865
40717,53888
40716,53892
40716,53899
40711,53902
40724,53907
40718,53930
40727,53944
40717,53949
40729,53965
40723,53992
40728,54005
40731,53993
40741,53989
40743,54014
40741,54011
40752,54026
40762,54039
40741,54041
40738,54047
40735,54055
40750,54064
40750,54082
40745,54078
40762,54092
40767,54095
40743,54110
40754,54106
40768,54118
40772,54117
40775,54127
40766,54136
40768,54148
40769,54158
40778,54160
40775,54182
40768,54160
40775,54178
40769,54179
40774,54178
40771,54192
40777,54191
40781,54208
40772,54202
40778,54229
40782,54225
40772,54223
40782,54214
40781,54241
40778,54237
40791,54250
40789,54259
40789,54253
40799,54253
40801,54277
40790,54264
40795,54280
40797,54299
40790,54315
40791,54307
40793,54309
40801,54293
40787,54306
40794,54268
40763,54181
40736,54089
40694,53968
40680,53840
40651,53713
40614,53639
40607,53585
40599,53540
40587,53516
40592,53499
40601,53507
40614,53513
40621,53574
40626,53571
40638,53606
40642,53646
40657,53668
40679,53698
40665,53733
40678,53744
40681,53768
40696,53779
40701,53815
40711,53829
40701,53843
40713,53865
40726,53887
40734,53933
40761,53969
40755,53991
40773,54022
40767,54056
40777,54086
40790,54070
40790,54095
40780,54098
40782,54093
40804,54091
40787,54087
40784,54080
40786,54064
40774,54057
40793,54051
40778,54049
40776,54027
40753,54031
40783,54037
40779,54045
40780,54042
40767,54072
40777,54082
40771,54075
40775,54090
40786,54100
40777,54106
40791,54135
40792,54121
40792,54157
40802,54137
40791,54147
40803,54171
40785,54180
40807,54170
40802,54180
40806,54200
40788,54191
40823,54210
40814,54210
40792,54232
40810,54235
40814,54238
40821,54230
40813,54239
40795,54236
40807,54250
40807,54251
40819,54243
40815,54265
40817,54278
40809,54284
40817,54301
40825,54310
40829,54297
40817,54306
40825,54323
40820,54335
40826,54312
40810,54325
40817,54316
40832,54326
40820,54329
40815,54358
40815,54361
40827,54348
40834,54365
40836,54345
40824,54360
40828,54368
40841,54364
40822,54374
40819,54380
40815,54361
40823,54351
40811,54353
40794,54356
40822,54351
40805,54356
40776,54342
40797,54360
40789,54355
40817,54278
40811,54356
40782,54373
40784,54351
40810,54354
40785,54342
40798,54336
40786,54368
40779,54367
40790,54339
40751,54287
40756,54200
40717,54074
40685,53940
40636,53809
40608,53709
40557,53614
40536,53548
40541,53505
40542,53480
40555,53475
40545,53478
40557,53482
40571,53508
40559,53529
40577,53553
40591,53576
40590,53596
40584,53605
40606,53630
40607,53641
40623,53660
40605,53690
40618,53697
40618,53706
40632,53719
40636,53736
40649,53758
40653,53781
40643,53811
40640,53830
40661,53851
40666,53849
40644,53852
40647,53870
40662,53858
40671,53842
40646,53822
40639,53815
40636,53799
40626,53798
40619,53788
40623,53791
40628,53784
40633,53782
40625,53795
40627,53811
40638,53799
40628,53813
40652,53832
40638,53825
40642,53837
40653,53855
40655,53863
40652,53873
40657,53880
40641,53886
40636,53908
40659,53921
40657,53921
40656,53932
40652,53938
40666,53949
40675,53968
40670,53982
40668,53963
40664,53981
40678,54000
40687,54015
40679,54019
40678,54035
40680,54018
40697,54036
40677,54038
40683,54044
40676,54053
40681,54053
40685,54068
40680,54065
40689,54087
40685,54084
40693,54092
40694,54098
40692,54111
40699,54115
40693,54118
40704,54123
40701,54129
40709,54144
40696,54152
40696,54140
40696,54168
40707,54161
40701,54174
40712,54176
40699,54187
40696,54181
40692,54189
40687,54184
40691,54185
40708,54193
40693,54189
40692,54208
40706,54183
40690,54205
40680,54190
40682,54197
40698,54204
40693,54209
40700,54207
40712,54221
40688,54238
40709,54226
40701,54230
40717,54246
40710,54237
40694,54257
40711,54243
40712,54261
40712,54241
40698,54255
40691,54200
40675,54124
40630,54027
40593,53877
40567,53736
40519,53631
40505,53555
40477,53494
40485,53451
40482,53445
40487,53434
40486,53432
40489,53465
40503,53456
40501,53480
40523,53528
40527,53560
40540,53575
40532,53607
40556,53639
40547,53642
40571,53684
40564,53697
40573,53725
40563,53733
40590,53743
40577,53765
40589,53792
40597,53815
40603,53839
40609,53842
40602,53880
40623,53883
40612,53881
40607,53890
40613,53878
40619,53874
40623,53866
40608,53850
40601,53839
40593,53824
40596,53820
40590,53820
40603,53824
40596,53811
40599,53828
40595,53835
40607,53813
40590,53843
40602,53852
40601,53863
40619,53874
40608,53889
40607,53896
40608,53905
40594,53918
40613,53926
40626,53941
40603,53946
40636,53973
40617,53955
40611,53961
40624,53992
40636,53975
40644,54006
40650,54021
40644,54017
40626,54037
40655,54045
40648,54035
40652,54064
40645,54061
40647,54059
40640,54072
40634,54090
40648,54094
40662,54097
40643,54118
40652,54129
40650,54127
40669,54130
40650,54146
40666,54145
40657,54138
40671,54140
40668,54171
40663,54163
40656,54176
40655,54181
40668,54186
40672,54197
40665,54198
40663,54212
40667,54194
40666,54217
40653,54207
40651,54202
40680,54234
40668,54240
40670,54232
40672,54223
40657,54235
40653,54249
40665,54245
40681,54253
40657,54267
40688,54265
40673,54277
40680,54290
40677,54279
40672,54284
40681,54305
40668,54290
40654,54298
40662,54254
40650,54201
40624,54124
40600,53998
40559,53875
40561,53775
40511,53666
40492,53599
40478,53540
40474,53515
40478,53516
40486,53538
40481,53546
40488,53558
40501,53585
40514,53576
40527,53633
40533,53657
40539,53691
40535,53711
40552,53756
40540,53755
40554,53778
40579,53800
40566,53821
40599,53828
40556,53864
40548,53900
40570,53909
40581,53929
40604,53929
40591,53939
40603,53949
40593,53944
40583,53946
40599,53925
40589,53921
40587,53918
40589,53905
40576,53908
40568,53876
40577,53883
40581,53878
40571,53868
40580,53887
40573,53884
40583,53892
40567,53883
40588,53908
40590,53917
40584,53931
40589,53942
40588,53947
40587,53951
40595,53978
40604,53995
40610,53992
40599,53994
40601,54009
40610,54022
40603,54042
40611,54040
40610,54047
40617,54054
40619,54065
40606,54074
40612,54078
40604,54075
40613,54099
40611,54101
40631,54103
40621,54121
40626,54128
40621,54120
40615,54122
40620,54130
40617,54144
40630,54147
40634,54162
40642,54176
40635,54171
40634,54187
40630,54176
40630,54200
40619,54197
40644,54202
40643,54213
40633,54220
40634,54216
40640,54206
40622,54232
40635,54226
40643,54231
40639,54233
40626,54235
40625,54233
40635,54251
40635,54268
40653,54271
40641,54255
40654,54275
40645,54263
40645,54280
40651,54294
40645,54291
40634,54287
40623,54271
40625,54218
40606,54143
40586,54038
40550,53919
40513,53797
40487,53684
40467,53631
40447,53586
40450,53541
40439,53520
40454,53521
40450,53523
40443,53535
40482,53567
40476,53608
40477,53629
40494,53656
40506,53696
40516,53707
40507,53744
40519,53762
40519,53784
40524,53795
40530,53812
40546,53846
40540,53862
40565,53899
40557,53919
40564,53935
40570,53951
40572,53957
40582,53967
40568,53969
40584,53974
40562,53964
40573,53958
40552,53944
40555,53940
40550,53928
40556,53913
40547,53903
40561,53885
40551,53894
40561,53892
40549,53903
40557,53910
40554,53919
40559,53913
40552,53933
40556,53942
40572,53959
40566,53955
40554,53956
40575,53980
40579,53993
40583,54022
40567,54020
40583,54027
40585,54043
40573,54030
40587,54056
40602,54056
40586,54058
40595,54076
40576,54102
40596,54097
40589,54119
40602,54110
40589,54085
40591,54119
40585,54132
40600,54135
40604,54149
40604,54154
40606,54161
40610,54152
40608,54158
40594,54175
40603,54189
40620,54192
40594,54194
40606,54196
40604,54218
40613,54200
40601,54211
40615,54212
40603,54217
40614,54222
40605,54223
40615,54251
40617,54238
40618,54246
40620,54254
40623,54270
40613,54277
40615,54255
40616,54277
40620,54290
40617,54281
40604,54286
40633,54295
40620,54290
40622,54303
40636,54323
40621,54327
40629,54330
40626,54316
40610,54322
40623,54317
40625,54323
40617,54283
40598,54214
40572,54131
40519,54006
40493,53875
40465,53744
40446,53650
40426,53582
40420,53530
40407,53505
40410,53494
40408,53486
40422,53502
40434,53531
40425,53536
40432,53566
40460,53613
40465,53616
40458,53662
40474,53680
40477,53686
40485,53711
40479,53731
40487,53759
40483,53762
40511,53783
40497,53791
40498,53814
40516,53859
40520,53861
40529,53890
40523,53898
40531,53903
40543,53903
40527,53893
40529,53914
40515,53895
40506,53890
40503,53881
40515,53877
40503,53856
40516,53858
40505,53833
40481,53831
40507,53843
40496,53843
40493,53845
40505,53877
40514,53846
40509,53833
40515,53877
40521,53896
40510,53916
40524,53922
40530,53938
40515,53945
40525,53939
40519,53968
40557,53976
40557,54001
40542,54000
40523,54009
40534,54024
40528,54025
40541,54031
40554,54046
40556,54037
40543,54042
40564,54070
40571,54065
40557,54080
40561,54081
40555,54083
40548,54107
40566,54110
40562,54098
40561,54099
40568,54127
40561,54117
40555,54130
40560,54131
40561,54150
40562,54149
40577,54152
40578,54173
40563,54176
40583,54162
40561,54169
40566,54178
40577,54177
40569,54189
40558,54184
40568,54177
40568,54178
40553,54174
40553,54168
40566,54174
40551,54163
40545,54161
40555,54165
40553,54170
40571,54160
40538,54147
40542,54145
40550,54130
40542,54136
40537,54118
40526,54100
40532,54092
40534,54091
40526,54098
40531,54096
40522,54089
40511,54083
40510,54110
40526,54117
40519,54114
40532,54115
40526,54097
40523,54065
40490,54013
40471,53925
40438,53805
40400,53651
40351,53521
40351,53445
40329,53386
40327,53350
40321,53342
40328,53313
40327,53345
40341,53359
40346,53376
40351,53397
40374,53450
40376,53459
40379,53501
40378,53549
40402,53548
40408,53578
40427,53610
40420,53613
40431,53637
40430,53668
40454,53670
40441,53717
40450,53714
40466,53736
40456,53782
40479,53791
40506,53805
40461,53833
40468,53827
40469,53806
40460,53828
40480,53817
40468,53805
40455,53804
40455,53781
40450,53765
40443,53769
40446,53746
40452,53766
40437,53738
40460,53763
40465,53763
40449,53757
40455,53761
40456,53795
40458,53780
40453,53807
40459,53822
40469,53817
40464,53836
40474,53846
40471,53859
40474,53864
40489,53882
40483,53891
40484,53903
40484,53903
40484,53926
40493,53932
40502,53936
40495,53944
40504,53964
40509,53953
40497,53973
40507,53980
40504,54018
40499,53999
40523,54003
40528,53999
40512,54009
40510,54030
40512,54025
40524,54047
40525,54055
40513,54045
40515,54063
40531,54075
40534,54079
40518,54074
40505,54082
40518,54080
40521,54097
40532,54097
40513,54111
40518,54112
40520,54117
40519,54130
40526,54132
40534,54143
40528,54149
40535,54152
40531,54162
40528,54147
40531,54156
40527,54160
40542,54168
40526,54162
40533,54180
40536,54177
40539,54195
40534,54184
40555,54185
40552,54194
40539,54211
40535,54225
40553,54228
40546,54222
40538,54224
40544,54229
40556,54249
40549,54242
40541,54277
40552,54244
40549,54225
40528,54184
40507,54108
40489,53992
40441,53849
40404,53720
40367,53630
40358,53533
40354,53485
40335,53451
40339,53435
40350,53429
40336,53429
40360,53456
40361,53487
40370,53513
40355,53533
40378,53553
40390,53591
40389,53593
40409,53646
40425,53662
40410,53675
40429,53697
40440,53685
40439,53731
40434,53744
40441,53752
40468,53807
40449,53818
40450,53838
40445,53853
40455,53850
40475,53856
40452,53867
40446,53858
40451,53853
40459,53824
40438,53816
40453,53801
40446,53780
40436,53780
40450,53777
40434,53755
40431,53756
40421,53769
40435,53770
40439,53781
40439,53791
40429,53805
40458,53812
40458,53822
40441,53816
40470,53827
40448,53845
40460,53857
40472,53873
40471,53878
40465,53886
40479,53912
40459,53932
40474,53909
40469,53936
40492,53916
40480,53932
40483,53969
40485,53972
40468,53976
40492,53986
40497,53995
40480,54017
40499,54012
40521,54018
40521,54006
40479,54040
40508,54035
40474,54042
40467,54043
40493,54050
40499,54065
40501,54062
40519,54080
40506,54089
40501,54077
40507,54075
40495,54086
40489,54115
40515,54115
40522,54119
40517,54115
40513,54123
40514,54144
40512,54148
40508,54141
40523,54147
40520,54169
40516,54157
40528,54159
40509,54144
40522,54171
40519,54184
40514,54168
40528,54162
40528,54170
40529,54191
40540,54189
40533,54197
40527,54211
40535,54207
40522,54227
40534,54222
40535,54220
40538,54231
40531,54231
40520,54202
40522,54153
40476,54070
40456,53939
40407,53813
40368,53674
40343,53587
40332,53511
40321,53477
40315,53417
40312,53402
40318,53390
40325,53401
40331,53429
40330,53446
40347,53465
40339,53494
40350,53525
40357,53544
40373,53576
40371,53596
40379,53612
40378,53619
40379,53649
40382,53670
40390,53675
40404,53693
40404,53723
40433,53752
40431,53765
40430,53798
40423,53808
40441,53822
40449,53815
40431,53833
40440,53809
40432,53804
40417,53792
40434,53793
40423,53777
40409,53750
40405,53739
40408,53730
40403,53735
40404,53738
40404,53722
40400,53733
40407,53751
40416,53741
40412,53775
40417,53769
40417,53777
40413,53783
40433,53784
40447,53810
40420,53831
40442,53834
40442,53843
40448,53861
40442,53882
40434,53870
40447,53892
40458,53902
40447,53904
40446,53908
40444,53916
40448,53933
40456,53952
40464,53956
40449,53963
40460,53969
40470,53965
40468,53962
40460,53970
40472,54000
40463,53994
40468,54008
40478,54019
40460,54011
40475,54038
40468,54025
40469,54056
40482,54042
40478,54054
40474,54060
40490,54081
40487,54064
40483,54074
40487,54083
40496,54084
40478,54078
40482,54096
40490,54108
40488,54106
40493,54097
40497,54100
40476,54125
40486,54119
40489,54124
40496,54128
40489,54156
40482,54146
40517,54148
40491,54162
40506,54173
40499,54170
40494,54174
40497,54181
40488,54177
40490,54178
40488,54164
40470,54112
40463,54003
40414,53913
40381,53781
40349,53633
40335,53564
40317,53477
40299,53435
40284,53412
40288,53377
40291,53388
40292,53415
40310,53408
40317,53439
40327,53458
40323,53497
40336,53518
40351,53524
40347,53557
40363,53577
40356,53608
40365,53612
40368,53635
40376,53650
40375,53683
40385,53693
40399,53715
40407,53720
40410,53754
40413,53773
40417,53774
40417,53798
40418,53796
40417,53811
40390,53798
40400,53783
40398,53771
40403,53742
40398,53728
40390,53729
40404,53705
40394,53715
40390,53702
40390,53711
40389,53704
40375,53702
40384,53714
40382,53737
40388,53741
40384,53758
40404,53755
40408,53778
40392,53768
40401,53778
40418,53799
40408,53811
40415,53839
40414,53827
40415,53836
40414,53855
40422,53838
40440,53892
40428,53871
40424,53910
40428,53889
40437,53899
40432,53877
40419,53915
40412,53937
40432,53935
40446,53948
40452,53911
40436,53946
40438,53965
40450,53948
40445,53962
40451,53981
40458,53997
40451,53997
40450,53991
40454,54012
40472,54025
40463,54007
40456,54020
40454,54027
40455,54040
40465,54067
40462,54069
40454,54028
40462,54025
40473,54059
40457,54054
40458,54071
40464,54084
40462,54089
40469,54092
40468,54096
40478,54105
40494,54105
40500,54111
40470,54124
40446,54097
40446,53948
40445,54050
40428,53962
40409,53874
40379,53759
40325,53628
40320,53531
40293,53465
40298,53412
40266,53374
40273,53362
40274,53354
40278,53365
40284,53390
40295,53399
40283,53416
40301,53444
40321,53477
40322,53502
40339,53514
40334,53546
40337,53566
40354,53586
40368,53598
40350,53626
40360,53631
40356,53664
40379,53686
40393,53703
40391,53727
40392,53741
40393,53742
40394,53742
40401,53765
40402,53752
40377,53742
40383,53716
40391,53714
40363,53691
40367,53665
40360,53671
40357,53654
40348,53659
40359,53642
40362,53652
40358,53658
40368,53658
40369,53662
40366,53682
40381,53691
40375,53696
40383,53702
40369,53716
40371,53717
40395,53756
40385,53755
40397,53762
40398,53768
40392,53783
40398,53800
40394,53795
40405,53808
40400,53813
40418,53831
40417,53832
40409,53837
40401,53836
40407,53844
40420,53856
40418,53852
40431,53861
40419,53878
40420,53891
40416,53898
40421,53902
40412,53922
40415,53916
40435,53921
40422,53921
40437,53933
40431,53937
40437,53921
40438,53949
40435,53958
40437,53954
40437,53954
40416,53981
40423,53980
40434,53986
40432,53995
40446,53987
40421,53996
40448,54002
40439,54019
40444,54011
40442,54018
40448,54035
40449,54028
40452,54036
40450,54041
40449,54056
40442,54059
40434,54051
40442,54030
40426,53972
40406,53891
40363,53762
40322,53612
40305,53509
40284,53400
40272,53333
40238,53303
40234,53264
40230,53243
40237,53220
40230,53224
40248,53251
40230,53253
40248,53274
40264,53293
40261,53301
40265,53310
40258,53334
40270,53339
40271,53347
40277,53371
40278,53369
40270,53384
40284,53375
40290,53374
40299,53398
40302,53423
40298,53439
40304,53449
40317,53505
40315,53490
40333,53504
40318,53510
40314,53487
40308,53473
40295,53475
40296,53460
40317,53450
40283,53447
40291,53441
40294,53435
40276,53424
40297,53428
40308,53432
40292,53443
40303,53436
40290,53442
40303,53463
40319,53480
40303,53473
40312,53496
40318,53503
40310,53494
40300,53512
40324,53530
40329,53537
40309,53538
40325,53572
40337,53563
40328,53569
40327,53579
40333,53593
40339,53592
40336,53604
40335,53612
40358,53620
40338,53633
40348,53651
40345,53640
40343,53653
40339,53661
40345,53664
40348,53657
40344,53673
40354,53670
40370,53674
40333,53699
40353,53682
40376,53697
40367,53722
40358,53695
40359,53714
40368,53731
40363,53736
40366,53734
40356,53751
40342,53745
40357,53737
40361,53770
40368,53759
40380,53767
40382,53775
40381,53757
40376,53783
40377,53783
40391,53782
40391,53786
40380,53804
40388,53812
40385,53827
40378,53822
40382,53823
40384,53831
40388,53826
40386,53835
40396,53840
40398,53847
40379,53852
40392,53854
40390,53865
40401,53859
40392,53880
40396,53877
40390,53899
40391,53854
40404,53868
40391,53909
40399,53918
40395,53906
40413,53931
40402,53929
40402,53941
40406,53943
40412,53948
40420,53945
40401,53956
40394,53938
40401,53901
40388,53837
40297,53590
40252,53442
40237,53320
40210,53199
40194,53162
40170,53105
40191,53096
40174,53068
40178,53079
40178,53082
40186,53087
40195,53113
40227,53132
40232,53134
40197,53166
40173,53158
40188,53172
40187,53192
40207,53184
40225,53219
40227,53216
40219,53218
40222,53232
40234,53246
40232,53266
40245,53288
40235,53312
40246,53335
40247,53338
40257,53356
40243,53344
40259,53337
40243,53316
40231,53303
40237,53284
40226,53277
40224,53238
40226,53246
40221,53234
40238,53229
40217,53236
40228,53234
40228,53238
40232,53241
40227,53269
40244,53245
40234,53258
40235,53276
40226,53274
40233,53284
40236,53289
40245,53320
40256,53314
40266,53316
40253,53340
40263,53351
40250,53356
40268,53368
40243,53383
40267,53367
40274,53378
40255,53403
40270,53404
40264,53414
40260,53412
40259,53408
40276,53423
40268,53448
40283,53447
40289,53447
40271,53453
40297,53452
40286,53467
40279,53467
40286,53469
40280,53503
40285,53478
40260,53500
40307,53508
40294,53495
40286,53513
40279,53505
40288,53518
40301,53530
40305,53525
40295,53523
40305,53548
40294,53527
40298,53554
40307,53554
40314,53565
40306,53545
40298,53571
40298,53580
40301,53588
40305,53581
40316,53589
40319,53571
40324,53602
40316,53594
40307,53609
40307,53613
40296,53625
40318,53615
40321,53615
40322,53633
40316,53633
40334,53643
40317,53643
40329,53673
40328,53683
40328,53699
40322,53693
40327,53703
40348,53710
40326,53694
40341,53714
40323,53675
40307,53609
40260,53497
40228,53366
40194,53208
40160,53106
40139,53001
40118,52948
40110,52895
40094,52843
40089,52835
40095,52813
40091,52806
40085,52808
40081,52820
40087,52825
40085,52829
40096,52848
40112,52840
40113,52863
40100,52881
40113,52866
40104,52885
40107,52899
40102,52901
40117,52901
40124,52929
40129,52935
40127,52956
40128,52965
40141,52987
40158,53019
40149,53004
40151,53012
40149,52988
40144,53015
40160,52988
40127,52963
40138,52950
40132,52938
40127,52919
40117,52918
40121,52916
40122,52897
40123,52904
40126,52905
40129,52913
40128,52921
40129,52937
40130,52932
40127,52939
40130,52967
40123,52953
40135,52956
40140,52981
40144,52988
40140,53016
40150,53004
40137,53025
40152,53036
40151,53041
40168,53043
40170,53061
40177,53087
40172,53087
40166,53101
40164,53105
40176,53117
40189,53114
40176,53126
40183,53136
40190,53141
40190,53149
40180,53152
40185,53166
40193,53177
40198,53166
40198,53194
40197,53201
40186,53200
40200,53192
40206,53219
40205,53217
40200,53231
40209,53245
40223,53232
40219,53257
40212,53241
40219,53261
40222,53269
40218,53283
40240,53286
40231,53282
40228,53288
40217,53300
40229,53319
40227,53303
40239,53326
40220,53329
40231,53347
40243,53342
40251,53349
40234,53365
40242,53369
40233,53362
40244,53379
40235,53389
40243,53377
40245,53393
40248,53393
40243,53405
40264,53415
40250,53418
40271,53424
40258,53432
40263,53418
40256,53462
40275,53472
40276,53443
40273,53480
40285,53494
40284,53514
40280,53511
40278,53499
40292,53528
40278,53530
40288,53521
40276,53486
40275,53412
40212,53299
40171,53143
40129,53001
40087,52857
40036,52704
40026,52658
40030,52580
40024,52552
40005,52543
40003,52509
40006,52529
40005,52534
40014,52533
39992,52540
40000,52545
40009,52559
40018,52568
40042,52582
40021,52584
40037,52579
40010,52580
40015,52595
40023,52601
40025,52607
40046,52606
40059,52623
40042,52661
40056,52660
40066,52682
40066,52690
40083,52700
40079,52691
40062,52673
40045,52670
40054,52658
40060,52640
40050,52619
40058,52632
40043,52605
40055,52594
40047,52599
40053,52606
40048,52608
40053,52605
40071,52618
40058,52623
40054,52629
40053,52647
40071,52649
40072,52640
40087,52660
40078,52691
40080,52689
40070,52688
40082,52713
40089,52715
40094,52724
40102,52740
40107,52745
40088,52758
40119,52778
40111,52768
40119,52794
40131,52801
40130,52814
40125,52816
40123,52829
40123,52843
40127,52858
40128,52864
40133,52865
40133,52881
40146,52877
40158,52896
40157,52897
40145,52917
40172,52900
40163,52926
40148,52936
40158,52943
40152,52956
40170,52961
40154,52956
40157,52984
40174,52966
40181,53001
40168,52987
40176,53006
40189,53011
40185,53016
40177,53035
40180,53017
40189,53039
40188,53035
40193,53071
40191,53068
40194,53060
40206,53063
40203,53077
40197,53099
40198,53095
40207,53102
40213,53114
40229,53130
40226,53128
40222,53143
40210,53157
40207,53166
40222,53168
40234,53174
40229,53170
40231,53183
40212,53192
40238,53199
40228,53210
40233,53223
40256,53225
40252,53238
40255,53249
40251,53264
40250,53266
40254,53268
40281,53287
40262,53300
40263,53309
40283,53315
40247,53299
40263,53285
40250,53250
40228,53153
40173,53007
40144,52879
40103,52738
40071,52621
40035,52550
40023,52476
40029,52431
39993,52398
39999,52376
40002,52362
39997,52366
40016,52379
40032,52384
40017,52392
40023,52418
40032,52433
40038,52448
40038,52450
40049,52458
40067,52480
40058,52476
40078,52484
40065,52523
40072,52528
40083,52555
40086,52572
40097,52597
40112,52622
40107,52638
40118,52639
40109,52651
40112,52663
40095,52625
40107,52612
40100,52604
40098,52586
40090,52560
40084,52533
40075,52526
40084,52527
40075,52533
40091,52528
40096,52546
40088,52538
40097,52555
40102,52572
40106,52571
40106,52587
40107,52605
40119,52607
40129,52612
40112,52630
40126,52640
40143,52653
40131,52666
40133,52683
40136,52707
40155,52701
40147,52720
40148,52733
40160,52752
40148,52763
40173,52771
40180,52781
40173,52795
40175,52810
40187,52807
40192,52798
40203,52815
40185,52847
40191,52848
40206,52856
40199,52862
40184,52873
40194,52885
40209,52891
40203,52917
40211,52913
40216,52910
40212,52919
40229,52934
40231,52950
40224,52960
40229,52943
40220,52985
40231,52978
40243,52985
40244,52980
40246,53007
40231,53013
40260,53007
40255,53022
40250,53028
40252,53048
40263,53062
40261,53060
40258,53067
40270,53069
40266,53080
40276,53086
40274,53098
40283,53102
40279,53117
40286,53126
40280,53147
40279,53145
40283,53136
40289,53162
40296,53180
40298,53188
40293,53172
40288,53181
40305,53195
40318,53210
40289,53188
40320,53227
40320,53243
40313,53252
40319,53277
40339,53282
40335,53275
40327,53282
40315,53286
40318,53242
40322,53166
40243,53058
40211,52891
40168,52760
40136,52614
40067,52463
40075,52379
40058,52333
40057,52278
40034,52309
40047,52274
40038,52281
40063,52306
40043,52311
40080,52315
40070,52345
40078,52345
40116,52351
40110,52352
40080,52363
40089,52389
40080,52379
40074,52398
40096,52414
40101,52395
40114,52434
40130,52457
40128,52467
40152,52495
40144,52507
40155,52518
40146,52514
40149,52523
40153,52510
40142,52537
40148,52504
40143,52483
40137,52480
40133,52465
40124,52460
40134,52458
40127,52455
40136,52444
40128,52461
40150,52458
40152,52478
40150,52485
40143,52494
40157,52506
40162,52502
40161,52537
40187,52549
40176,52557
40183,52561
40173,52584
40186,52602
40187,52618
40198,52613
40209,52629
40205,52645
40210,52666
40212,52671
40220,52672
40220,52684
40220,52709
40227,52723
40225,52749
40244,52750
40235,52777
40247,52781
40255,52789
40257,52798
40256,52800
40261,52819
40264,52822
40282,52839
40274,52843
40272,52849
40280,52862
40279,52861
40293,52886
40285,52874
40293,52913
40283,52909
40289,52918
40306,52925
40292,52941
40302,52933
40307,52959
40306,52954
40311,52981
40322,52975
40328,52991
40322,52987
40321,52993
40334,53019
40333,53016
40330,53018
40327,53052
40336,53053
40346,53060
40340,53077
40340,53085
40342,53094
40362,53101
40352,53102
40359,53130
40364,53135
40354,53134
40372,53139
40357,53155
40378,53171
40374,53171
40381,53187
40373,53191
40371,53194
40384,53199
40383,53209
40381,53234
40404,53230
40410,53229
40385,53239
40401,53257
40408,53278
40409,53288
40413,53293
40414,53304
40423,53309
40411,53315
40401,53277
40391,53226
40359,53158
40308,52983
40277,52823
40229,52702
40207,52571
40190,52470
40161,52431
40157,52380
40127,52359
40137,52331
40140,52311
40146,52336
40149,52353
40160,52359
40163,52388
40170,52402
40211,52422
40198,52433
40197,52448
40189,52468
40211,52484
40202,52501
40204,52508
40221,52508
40217,52529
40228,52533
40231,52556
40237,52561
40247,52609
40244,52639
40268,52637
40254,52650
40261,52662
40266,52647
40255,52646
40265,52643
40242,52618
40248,52605
40235,52593
40251,52572
40245,52579
40246,52576
40246,52590
40273,52596
40262,52594
40247,52608
40258,52606
40267,52618
40268,52632
40285,52651
40274,52677
40304,52679
40277,52681
40294,52709
40292,52729
40288,52727
40300,52742
40309,52750
40319,52753
40320,52782
40320,52793
40322,52808
40324,52819
40325,52837
40348,52839
40354,52861
40354,52877
40342,52883
40365,52902
40358,52899
40351,52903
40358,52926
40351,52926
40367,52927
40378,52935
40376,52966
40386,52972
40379,52969
40389,52982
40378,52997
40375,53005
40390,53005
40401,53019
40390,53031
40406,53055
40399,53069
40399,53072
40408,53054
40406,53064
40403,53078
40408,53083
40420,53110
40413,53108
40421,53109
40428,53125
40428,53126
40429,53123
40434,53141
40428,53166
40429,53163
40442,53183
40448,53184
40443,53214
40440,53207
40458,53212
40456,53215
40445,53231
40464,53223
40468,53247
40454,53273
40459,53258
40462,53256
40462,53271
40470,53275
40470,53288
40486,53309
40478,53312
40484,53333
40490,53315
40489,53322
40499,53356
40486,53356
40504,53372
40498,53375
40489,53380
40510,53375
40509,53377
40478,53340
40458,53266
40360,52926
40320,52785
40296,52673
40277,52597
40260,52534
40242,52497
40237,52460
40230,52451
40244,52459
40245,52436
40268,52470
40272,52478
40237,52516
40245,52541
40287,52570
40286,52590
40281,52609
40308,52618
40290,52637
40328,52640
40310,52669
40330,52684
40320,52682
40331,52706
40352,52740
40354,52746
40363,52792
40367,52816
40379,52833
40377,52835
40371,52843
40372,52829
40365,52819
40364,52821
40385,52806
40365,52773
40359,52771
40346,52754
40364,52749
40343,52746
40352,52764
40342,52755
40364,52772
40374,52776
40369,52786
40366,52802
40384,52812
40380,52837
40396,52851
40392,52853
40389,52868
40394,52879
40411,52901
40407,52901
40412,52930
40407,52943
40415,52953
40432,52972
40423,53000
40423,53003
40439,53015
40445,53010
40437,53035
40436,53033
40453,53063
40447,53071
40451,53076
40476,53088
40463,53092
40454,53108
40473,53111
40454,53108
40475,53118
40470,53138
40480,53151
40477,53160
40466,53168
40473,53162
40496,53187
40484,53200
40495,53205
40496,53211
40494,53220
40486,53220
40505,53235
40499,53250
40521,53255
40484,53263
40514,53279
40504,53279
40511,53275
40506,53307
40497,53295
40514,53299
40507,53308
40528,53302
40522,53311
40519,53330
40527,53324
40529,53356
40542,53337
40540,53365
40536,53357
40534,53366
40540,53363
40548,53389
40542,53395
40547,53397
40550,53423
40557,53419
40549,53425
40559,53451
40570,53449
40554,53462
40551,53464
40563,53461
40565,53477
40573,53486
40559,53478
40547,53475
40549,53415
40529,53341
40482,53225
40433,53051
40402,52939
40371,52824
40337,52734
40326,52668
40324,52636
40331,52628
40328,52617
40338,52624
40338,52654
40354,52672
40348,52697
40369,52727
40370,52736
40393,52785
40395,52819
40397,52832
40409,52858
40405,52867
40425,52913
40452,52904
40435,52938
40445,52961
40450,52976
40464,53008
40475,53026
40476,53066
40489,53077
40485,53082
40470,53078
40478,53090
40469,53069
40469,53058
40465,53033
40455,53017
40452,53001
40458,52983
40442,52974
40445,52974
40443,52969
40441,52984
40451,52974
40449,52984
40459,53004
40464,53015
40460,53021
40469,53035
40475,53057
40480,53067
40491,53090
40491,53085
40500,53114
40492,53109
40507,53139
40515,53146
40503,53157
40508,53171
40501,53183
40512,53193
40519,53205
40527,53225
40530,53222
40530,53238
40536,53248
40533,53249
40536,53258
40545,53256
40544,53280
40558,53286
40546,53296
40541,53317
40549,53311
40548,53332
40548,53332
40562,53339
40553,53346
40558,53360
40568,53386
40558,53375
40561,53368
40560,53390
40572,53399
40571,53398
40561,53399
40573,53406
40572,53422
40574,53434
40582,53442
40583,53440
40582,53443
40582,53457
40589,53470
40568,53487
40579,53479
40595,53489
40598,53483
40589,53490
40611,53518
40614,53512
40607,53520
40603,53530
40606,53516
40591,53483
40564,53427
40546,53340
40513,53199
40457,53029
40428,52948
40408,52839
40382,52769
40369,52717
40340,52686
40355,52677
40369,52670
40361,52687
40371,52699
40380,52726
40383,52731
40401,52761
40406,52789
40400,52788
40428,52847
40391,52863
40430,52858
40446,52900
40454,52897
40445,52945
40455,52942
40452,52940
40471,52950
40477,52989
40494,53005
40491,53053
40499,53067
40508,53072
40495,53081
40489,53062
40491,53066
40503,53055
40505,53048
40485,53024
40485,53025
40369,52717
40472,53002
40476,52990
40483,52991
40480,52986
40484,53017
40464,53023
40496,53046
40488,53050
40512,53071
40513,53078
40500,53099
40516,53115
40518,53124
40518,53129
40515,53140
40520,53165
40531,53169
40515,53182
40535,53201
40545,53207
40545,53228
40542,53239
40543,53221
40555,53257
40542,53277
40558,53278
40559,53292
40558,53282
40550,53304
40558,53318
40565,53311
40563,53335
40561,53345
40579,53349
40571,53354
40583,53353
40576,53375
40595,53364
40601,53407
40588,53384
40604,53413
40588,53417
40596,53426
40579,53431
40590,53435
40606,53440
40602,53440
40593,53470
40595,53453
40608,53454
40612,53469
40610,53473
40609,53498
40613,53477
40606,53493
40605,53491
40619,53518
40614,53492
40625,53545
40624,53527
40620,53540
40625,53539
40618,53543
40619,53561
40627,53574
40628,53580
40631,53584
40635,53580
40626,53583
40602,53527
40587,53450
40569,53362
40507,53185
40460,53037
40438,52948
40407,52856
40401,52798
40401,52751
40393,52730
40396,52729
40387,52714
40405,52750
40407,52770
40428,52775
40422,52806
40421,52836
40426,52846
40448,52863
40442,52889
40467,52903
40470,52923
40466,52931
40471,52952
40481,52967
40492,52972
40498,52969
40493,53006
40493,53019
40480,53064
40499,53079
40500,53104
40523,53099
40522,53118
40518,53113
40511,53097
40507,53103
40514,53075
40491,53074
40500,53075
40494,53047
40494,53048
40496,53025
40481,53048
40494,53056
40508,53032
40500,53056
40505,53076
40498,53084
40514,53089
40503,53110
40515,53108
40521,53139
40510,53139
40543,53152
40549,53181
40550,53183
40529,53194
40546,53199
40552,53229
40551,53236
40549,53232
40567,53249
40581,53276
40571,53291
40573,53274
40571,53295
40566,53288
40586,53306
40577,53317
40573,53334
40586,53325
40573,53355
40586,53352
40593,53359
40579,53362
40598,53379
40591,53382
40594,53398
40613,53402
40604,53427
40604,53405
40605,53428
40608,53430
40603,53424
40609,53452
40614,53464
40621,53468
40607,53465
40622,53478
40614,53485
40620,53478
40624,53486
40634,53491
40614,53505
40626,53533
40621,53515
40631,53529
40637,53528
40642,53544
40632,53552
40627,53559
40640,53560
40640,53576
40643,53558
40642,53584
40633,53573
40638,53585
40645,53596
40668,53605
40654,53615
40662,53615
40652,53615
40642,53639
40652,53637
40646,53650
40673,53657
40652,53674
40660,53666
40657,53694
40669,53680
40663,53701
40652,53681
40659,53661
40631,53609
40608,53508
40565,53381
40511,53212
40488,53093
40464,53003
40427,52907
40421,52860
40420,52839
40423,52837
40438,52835
40425,52828
40427,52863
40434,52880
40454,52907
40464,52927
40465,52953
40483,52985
40495,53019
40499,53035
40505,53044
40505,53049
40493,53081
40512,53089
40531,53108
40532,53116
40541,53114
40529,53159
40550,53182
40546,53208
40548,53222
40551,53243
40567,53240
40555,53236
40565,53237
40535,53219
40568,53185
40525,53182
40533,53175
40528,53154
40520,53174
40533,53182
40528,53154
40528,53150
40522,53131
40529,53163
40544,53189
40541,53212
40547,53192
40544,53218
40544,53224
40553,53248
40564,53250
40573,53280
40573,53276
40554,53296
40532,53296
40568,53326
40575,53336
40590,53338
40585,53340
40579,53351
40581,53365
40588,53369
40592,53389
40588,53406
40590,53396
40616,53405
40612,53411
40587,53430
40607,53425
40602,53453
40608,53448
40597,53461
40604,53469
40618,53458
40623,53477
40625,53483
40634,53482
40607,53495
40626,53486
40602,53520
40630,53514
40629,53535
40626,53546
40632,53536
40615,53540
40625,53546
40635,53560
40626,53556
40627,53559
40642,53572
40628,53578
40629,53591
40629,53605
40637,53604
40648,53593
40638,53603
40643,53617
40637,53606
40638,53633
40645,53612
40646,53643
40642,53638
40652,53646
40665,53655
40660,53655
40652,53655
40662,53668
40659,53656
40679,53677
40654,53696
40682,53704
40676,53711
40669,53711
40666,53731
40681,53729
40667,53733
40677,53746
40668,53733
40666,53706
40648,53668
40623,53578
40589,53461
40552,53305
40500,53178
40474,53090
40452,53016
40440,52966
40437,52937
40451,52915
40441,52915
40458,52943
40430,52964
40463,52980
40468,53008
40492,53026
40513,53070
40500,53095
40498,53119
40526,53141
40509,53160
40524,53193
40534,53185
40543,53231
40549,53233
40549,53239
40559,53278
40561,53300
40573,53332
40578,53336
40569,53369
40569,53349
40593,53361
40579,53349
40564,53360
40569,53324
40567,53306
40547,53289
40553,53270
40551,53261
40554,53243
40539,53239
40540,53248
40551,53248
40545,53259
40538,53264
40552,53273
40533,53286
40571,53303
40551,53316
40553,53335
40579,53329
40566,53346
40584,53372
40569,53373
40587,53378
40604,53390
40599,53403
40596,53417
40593,53422
40586,53438
40599,53446
40604,53461
40614,53470
40605,53477
40610,53482
40608,53493
40609,53499
40596,53505
40609,53510
40626,53526
40617,53537
40621,53531
40618,53547
40616,53561
40621,53542
40629,53571
40632,53582
40625,53578
40624,53589
40628,53592
40627,53593
40636,53619
40631,53613
40631,53621
40650,53623
40649,53630
40623,53636
40653,53638
40641,53653
40644,53651
40648,53651
40655,53663
40654,53676
40654,53678
40656,53675
40645,53685
40660,53685
40654,53705
40675,53715
40670,53700
40662,53718
40651,53714
40653,53727
40667,53733
40666,53737
40664,53748
40666,53754
40663,53757
40665,53750
40662,53781
40666,53758
40664,53774
40681,53774
40685,53792
40674,53808
40686,53817
40677,53809
40689,53829
40682,53821
40691,53827
40679,53828
40676,53824
40660,53784
40642,53725
40603,53592
40555,53454
40503,53310
40488,53184
40483,53107
40456,53047
40444,52975
40444,52958
40440,52975
40434,52969
40445,52992
40457,53021
40458,53023
40468,53051
40476,53082
40484,53096
40486,53143
40521,53148
40512,53162
40524,53184
40522,53197
40514,53208
40517,53214
40526,53231
40526,53241
40539,53251
40542,53289
40551,53300
40553,53347
40557,53333
40561,53343
40564,53349
40567,53363
40557,53335
40551,53328
40548,53317
40548,53304
40539,53282
40546,53281
40543,53269
40540,53269
40545,53262
40527,53265
40532,53278
40544,53291
40524,53289
40556,53313
40548,53345
40558,53356
40551,53327
40567,53339
40562,53359
40546,53381
40569,53402
40569,53389
40577,53419
40574,53428
40574,53429
40585,53446
40588,53453
40601,53457
40600,53481
40565,53477
40573,53498
40597,53517
40597,53520
40607,53529
40595,53535
40588,53540
40592,53551
40603,53547
40605,53550
40609,53572
40591,53565
40610,53589
40610,53595
40617,53596
40615,53604
40622,53604
40612,53627
40613,53620
40616,53640
40617,53629
40628,53653
40628,53660
40622,53644
40630,53659
40618,53661
40634,53673
40638,53678
40631,53685
40634,53697
40641,53683
40637,53703
40630,53703
40637,53720
40640,53712
40637,53730
40639,53720
40636,53736
40638,53741
40654,53755
40647,53742
40646,53748
40652,53774
40665,53768
40650,53780
40655,53788
40654,53793
40659,53820
40671,53805
40647,53818
40638,53802
40646,53737
40618,53702
40564,53580
40533,53413
40507,53285
40477,53189
40445,53108
40441,53051
40441,53010
40432,53003
40433,52998
40440,53002
40436,53017
40445,53051
40449,53059
40463,53082
40483,53106
40479,53137
40480,53157
40492,53180
40490,53197
40514,53217
40504,53229
40510,53221
40512,53254
40510,53257
40518,53285
40548,53308
40542,53327
40535,53348
40550,53360
40543,53380
40551,53372
40533,53381
40548,53387
40538,53368
40542,53358
40539,53327
40551,53314
40529,53304
40519,53296
40514,53292
40525,53293
40517,53292
40531,53299
40522,53302
40537,53289
40541,53314
40529,53325
40526,53323
40542,53350
40538,53345
40542,53378
40529,53382
40541,53390
40561,53412
40541,53413
40574,53434
40551,53427
40562,53438
40568,53442
40549,53455
40565,53466
40571,53486
40580,53488
40587,53504
40584,53509
40596,53512
40577,53520
40594,53533
40591,53535
40599,53556
40588,53555
40589,53567
40591,53567
40590,53570
40583,53586
40596,53568
40598,53591
40612,53584
40588,53615
40595,53614
40590,53626
40611,53628
40601,53644
40601,53641
40601,53658
40603,53653
40615,53650
40607,53657
40601,53662
40607,53673
40619,53678
40608,53664
40615,53685
40618,53684
40621,53689
40626,53686
40617,53701
40614,53703
40631,53716
40621,53728
40612,53721
40629,53724
40632,53720
40623,53755
40638,53733
40627,53757
40637,53762
40625,53781
40637,53780
40645,53759
40624,53735
40605,53668
40581,53604
40548,53461
40488,53316
40462,53231
40441,53155
40446,53102
40424,53045
40415,53021
40418,53024
40434,53041
40439,53040
40445,53060
40441,53097
40465,53106
40461,53153
40480,53179
40494,53189
40480,53204
40500,53223
40503,53231
40501,53244
40484,53268
40511,53286
40516,53294
40542,53322
40529,53343
40535,53369
40539,53385
40544,53401
40542,53404
40556,53404
40529,53398
40539,53398
40524,53366
40525,53356
40506,53335
40504,53318
40508,53298
40506,53298
40502,53277
40505,53287
40511,53299
40513,53294
40511,53332
40517,53314
40521,53328
40530,53327
40515,53348
40529,53341
40539,53375
40546,53391
40540,53372
40550,53387
40545,53407
40544,53433
40557,53435
40555,53442
40554,53460
40557,53457
40554,53460
40568,53477
40563,53493
40569,53499
40573,53508
40574,53507
40566,53506
40560,53505
40581,53536
40574,53530
40571,53542
40574,53565
40576,53559
40582,53573
40580,53549
40592,53538
40594,53570
40579,53590
40600,53602
40595,53614
40584,53606
40598,53616
40592,53626
40588,53633
40612,53636
40611,53634
40593,53637
40570,53639
40600,53655
40580,53661
40595,53666
40599,53665
40601,53654
40600,53675
40598,53684
40624,53684
40620,53676
40599,53690
40612,53694
40625,53706
40626,53715
40606,53730
40615,53717
40627,53732
40605,53724
40610,53748
40637,53734
40611,53722
40598,53661
40562,53570
40530,53460
40481,53307
40445,53196
40438,53119
40408,53044
40402,53003
40389,52960
40390,52958
40390,52945
40393,52969
40402,52970
40398,52988
40399,52997
40403,53012
40424,53025
40426,53050
40425,53066
40434,53056
40438,53081
40433,53076
40435,53091
40463,53092
40440,53087
40454,53093
40458,53121
40462,53140
40459,53141
40468,53181
40479,53199
40463,53211
40475,53199
40483,53207
40468,53204
40482,53201
40477,53196
40475,53182
40465,53168
40473,53155
40457,53152
40463,53147
40457,53152
40453,53155
40463,53165
40482,53172
40458,53179
40473,53184
40484,53194
40493,53199
40487,53206
40473,53218
40477,53237
40484,53249
40489,53249
40486,53252
40486,53268
40496,53273
40494,53283
40502,53281
40500,53312
40519,53312
40506,53343
40503,53335
40508,53343
40521,53357
40505,53343
40520,53355
40524,53387
40516,53373
40521,53371
40531,53379
40529,53413
40525,53413
40531,53428
40521,53419
40533,53424
40521,53445
40542,53453
40526,53445
40531,53458
40532,53461
40539,53464
40543,53476
40549,53483
40532,53475
40543,53492
40540,53494
40546,53503
40545,53498
40558,53515
40540,53525
40546,53518
40555,53537
40545,53534
40562,53549
40546,53552
40555,53558
40559,53560
40569,53571
40556,53597
40577,53580
40575,53589
40577,53598
40572,53604
40571,53585
40566,53606
40567,53621
40590,53625
40576,53645
40572,53652
40575,53639
40575,53657
40587,53666
40595,53665
40583,53674
40600,53675
40584,53680
40582,53684
40582,53689
40586,53702
40589,53691
40600,53708
40601,53710
40609,53713
40597,53723
40599,53726
40611,53751
40589,53749
40612,53762
40622,53754
40593,53754
40607,53747
40611,53743
40592,53698
40550,53614
40521,53494
40495,53340
40446,53215
40406,53128
40380,53036
40360,52970
40381,52940
40364,52929
40360,52920
40367,52941
40369,52931
40385,52953
40379,52969
40397,52983
40387,53011
40401,53021
40423,53039
40420,53051
40407,53051
40432,53086
40422,53083
40427,53072
40421,53104
40434,53076
40425,53100
40438,53129
40440,53145
40457,53163
40450,53194
40448,53202
40466,53198
40467,53195
40464,53191
40467,53204
40442,53163
40444,53169
40444,53151
40461,53135
40435,53150
40437,53142
40435,53126
40442,53135
40437,53136
40447,53146
40443,53161
40443,53169
40441,53168
40457,53192
40482,53192
40447,53199
40450,53213
40471,53210
40466,53227
40456,53231
40455,53253
40466,53263
40479,53270
40486,53279
40472,53292
40467,53303
40490,53319
40480,53328
40498,53322
40502,53328
40490,53346
40503,53368
40510,53353
40493,53363
40511,53380
40501,53393
40494,53379
40513,53393
40513,53404
40506,53404
40517,53417
40500,53421
40515,53434
40505,53444
40515,53423
40520,53466
40482,53192
40523,53479
40522,53492
40533,53495
40526,53469
40531,53446
40537,53467
40523,53495
40532,53504
40530,53522
40538,53513
40551,53514
40531,53526
40549,53537
40545,53535
40567,53539
40547,53553
40522,53559
40520,53568
40556,53561
40530,53589
40554,53584
40560,53587
40549,53607
40554,53604
40556,53604
40561,53620
40558,53626
40559,53636
40566,53629
40562,53649
40556,53657
40561,53649
40575,53663
40587,53663
40581,53670
40571,53681
40577,53669
40569,53692
40579,53695
40581,53703
40576,53716
40570,53713
40572,53726
40579,53723
40577,53736
40574,53741
40586,53740
40581,53746
40578,53695
40542,53671
40537,53551
40476,53425
40449,53278
40411,53163
40393,53080
40357,52993
40365,52955
40355,52924
40368,52924
40338,52911
40352,52917
40357,52959
40366,52947
40381,52973
40376,52985
40398,53018
40397,53038
40397,53043
40406,53064
40387,53063
40397,53065
40411,53094
40404,53103
40414,53110
40417,53119
40412,53138
40435,53157
40436,53174
40446,53201
40453,53208
40450,53213
40447,53203
40446,53235
40455,53209
40443,53206
40432,53191
40429,53171
40434,53181
40423,53149
40414,53143
40433,53159
40417,53154
40426,53149
40427,53164
40423,53171
40432,53191
40449,53190
40445,53183
40433,53215
40454,53209
40445,53231
40444,53236
40438,53239
40457,53243
40469,53263
40457,53256
40471,53278
40464,53298
40464,53302
40466,53331
40474,53318
40476,53341
40474,53342
40486,53361
40501,53366
40485,53363
40494,53386
40490,53376
40492,53384
40495,53394
40489,53405
40497,53414
40502,53416
40507,53430
40498,53439
40515,53438
40510,53444
40515,53444
40499,53458
40502,53481
40504,53472
40515,53488
40513,53483
40507,53514
40506,53495
40522,53511
40520,53507
40537,53519
40530,53541
40504,53530
40529,53536
40526,53548
40528,53550
40515,53558
40531,53562
40539,53561
40509,53573
40523,53581
40530,53577
40537,53581
40517,53587
40543,53605
40537,53598
40537,53612
40539,53625
40541,53624
40544,53621
40555,53638
40542,53641
40571,53663
40550,53663
40566,53669
40549,53694
40547,53684
40570,53688
40566,53705
40565,53708
40566,53719
40546,53678
40549,53655
40539,53595
40484,53497
40462,53362
40405,53227
40382,53126
40371,53053
40361,52983
40339,52960
40333,52937
40328,52949
40349,52929
40363,52949
40356,52966
40372,52987
40370,53007
40367,53026
40382,53042
40395,53076
40395,53086
40403,53099
40402,53102
40405,53138
40420,53154
40419,53154
40423,53168
40422,53210
40422,53230
40446,53239
40453,53270
40450,53296
40466,53300
40450,53287
40456,53289
40438,53282
40439,53260
40439,53236
40436,53225
40420,53205
40421,53210
40419,53184
40425,53187
40423,53190
40412,53185
40430,53189
40425,53212
40423,53216
40437,53224
40443,53242
40448,53245
40442,53257
40436,53272
40449,53283
40437,53300
40454,53297
40456,53317
40470,53332
40462,53333
40460,53354
40471,53370
40475,53367
40473,53387
40480,53391
40479,53399
40482,53416
40482,53423
40492,53414
40486,53423
40485,53438
40483,53459
40496,53426
40505,53463
40510,53466
40520,53473
40500,53492
40504,53503
40504,53498
40503,53504
40495,53501
40510,53519
40537,53545
40506,53548
40509,53546
40499,53541
40534,53580
40546,53600
40527,53577
40533,53532
40514,53555
40527,53587
40513,53598
40531,53610
40531,53600
40533,53621
40540,53616
40522,53624
40536,53625
40552,53628
40562,53652
40532,53635
40496,53647
40483,53459
40538,53652
40532,53660
40536,53676
40552,53671
40547,53683
40554,53684
40544,53698
40553,53693
40559,53715
40554,53731
40552,53744
40563,53732
40574,53752
40571,53746
40551,53749
40538,53720
40532,53638
40490,53547
40446,53411
40414,53255
40376,53148
40352,53072
40342,53000
40318,52950
40320,52935
40305,52921
40313,52904
40319,52894
40337,52917
40331,52935
40342,52950
40330,52953
40361,52975
40365,53004
40366,53006
40352,53030
40371,53043
40352,53034
40374,53061
40382,53069
40385,53078
40362,53073
