40086,52144
40075,52180
40051,52196
40281,52936
40084,52241
40094,52267
40114,52280
40122,52291
40129,52300
40127,52335
40129,52331
40147,52381
40154,52409
40161,52451
40171,52446
40168,52471
40181,52494
40191,52483
40163,52470
40160,52458
40167,52437
40168,52413
40155,52393
40159,52385
40141,52372
40130,52345
40147,52342
40135,52348
40152,52330
40153,52342
40144,52358
40164,52359
40151,52383
40161,52381
40162,52411
40172,52424
40175,52437
40179,52447
40176,52469
40196,52488
40178,52481
40209,52504
40199,52503
40204,52535
40201,52553
40208,52568
40217,52579
40222,52580
40222,52601
40229,52616
40214,52616
40232,52638
40225,52632
40247,52659
40234,52660
40249,52678
40242,52684
40251,52704
40242,52703
40270,52725
40266,52716
40264,52723
40267,52747
40282,52740
40283,52746
40279,52776
40290,52778
40264,52791
40272,52792
40281,52798
40276,52805
40277,52817
40301,52828
40300,52824
40284,52840
40298,52844
40308,52863
40302,52872
40306,52872
40310,52877
40303,52889
40304,52896
40315,52904
40316,52916
40307,52920
40330,52927
40324,52934
40328,52947
40325,52950
40331,52969
40330,52989
40335,52971
40334,52988
40337,53012
40345,53019
40366,53024
40348,53033
40347,53026
40337,53004
40344,52946
40315,52883
40228,52702
40194,52532
40153,52409
40118,52252
40078,52166
40084,52117
40059,52085
40069,52062
40055,52054
40072,52059
40065,52061
40078,52094
40089,52117
40087,52141
40095,52168
40098,52177
40126,52201
40110,52204
40132,52218
40116,52229
40132,52260
40151,52262
40151,52291
40152,52302
40142,52327
40159,52350
40169,52389
40189,52407
40193,52413
40208,52436
40199,52441
40200,52454
40188,52453
40189,52425
40189,52411
40181,52380
40179,52366
40176,52344
40174,52350
40159,52344
40166,52328
40177,52323
40162,52339
40170,52347
40174,52352
40187,52358
40179,52377
40197,52404
40210,52409
40210,52426
40201,52429
40224,52459
40211,52471
40226,52499
40219,52496
40224,52528
40245,52529
40251,52537
40246,52545
40250,52575
40250,52571
40243,52595
40253,52626
40263,52629
40275,52629
40265,52666
40275,52657
40260,52667
40260,52681
40276,52689
40287,52698
40289,52710
40282,52719
40299,52720
40284,52732
40293,52743
40303,52754
40304,52758
40310,52764
40317,52777
40323,52799
40311,52794
40314,52804
40324,52820
40313,52815
40344,52830
40325,52838
40320,52849
40332,52853
40343,52858
40341,52868
40344,52879
40357,52888
40341,52896
40344,52899
40344,52917
40354,52915
40369,52917
40351,52931
40346,52958
40353,52949
40357,52950
40360,52972
40355,52982
40371,52990
40375,53004
40368,53002
40389,53040
40395,53038
40367,53019
40361,52980
40353,52912
40305,52793
40262,52607
40196,52454
40152,52311
40130,52175
40121,52116
40091,52065
40088,52035
40071,52006
40086,51993
40090,52030
40089,52029
40096,52047
40097,52048
40086,52076
40115,52091
40120,52109
40124,52141
40102,52148
40157,52156
40128,52175
40137,52200
40151,52210
40152,52208
40150,52195
40176,52241
40169,52270
40185,52311
40206,52333
40191,52342
40191,52368
40202,52372
40200,52358
40199,52343
40205,52317
40189,52318
40160,52298
40174,52287
40159,52276
40161,52268
40178,52268
40174,52272
40165,52274
40180,52293
40176,52284
40187,52301
40191,52320
40198,52330
40197,52333
40196,52353
40198,52371
40200,52367
40215,52378
40222,52393
40233,52422
40234,52443
40247,52442
40252,52464
40234,52482
40251,52485
40252,52505
40249,52510
40258,52513
40257,52540
40260,52554
40273,52563
40285,52583
40287,52578
40268,52610
40286,52601
40301,52617
40302,52637
40284,52641
40303,52646
40301,52664
40302,52669
40287,52677
40300,52690
40318,52712
40314,52698
40307,52719
40326,52736
40323,52728
40334,52752
40318,52759
40336,52772
40312,52760
40329,52766
40344,52786
40342,52807
40332,52809
40338,52813
40350,52818
40339,52827
40347,52842
40348,52835
40345,52846
40359,52856
40349,52878
40359,52881
40361,52887
40358,52896
40365,52905
40372,52910
40367,52911
40362,52935
40378,52943
40385,52957
40375,52973
40379,52976
40386,52985
40392,52988
40388,52990
40378,52990
40363,52944
40361,52870
40325,52736
40268,52562
40209,52415
40160,52277
40133,52163
40122,52094
40111,52041
40096,52031
40102,52020
40113,52020
40099,52034
40123,52050
40118,52075
40125,52103
40138,52124
40127,52149
40154,52171
40165,52181
40158,52209
40160,52226
40179,52224
40193,52263
40186,52276
40202,52282
40209,52297
40204,52332
40204,52362
40234,52385
40223,52414
40249,52420
40239,52412
40242,52425
40229,52394
40226,52390
40219,52373
40225,52349
40218,52330
40206,52326
40206,52295
40200,52295
40208,52295
40199,52295
40200,52294
40214,52302
40211,52301
40215,52317
40211,52346
40226,52356
40214,52383
40231,52366
40232,52404
40236,52409
40239,52429
40244,52426
40239,52450
40247,52457
40264,52481
40257,52491
40273,52499
40271,52531
40270,52536
40283,52542
40286,52564
40283,52586
40284,52585
40291,52584
40308,52608
40294,52615
40299,52628
40321,52644
40310,52640
40327,52662
40318,52660
40326,52668
40324,52675
40327,52692
40328,52699
40327,52713
40337,52738
40334,52727
40344,52746
40334,52750
40358,52768
40341,52767
40339,52779
40346,52785
40344,52799
40349,52792
40358,52816
40360,52810
40347,52830
40364,52831
40368,52830
40364,52851
40372,52851
40366,52864
40377,52869
40355,52864
40373,52884
40383,52898
40390,52911
40397,52920
40389,52938
40409,52967
40390,52963
40398,52976
40393,52961
40409,52959
40393,52942
40368,52880
40323,52764
40288,52592
40246,52445
40193,52281
40158,52191
40129,52087
40123,52029
40104,51992
40098,52000
40109,51989
40104,51975
40114,51985
40124,51997
40121,52022
40140,52044
40139,52047
40125,52084
40157,52101
40147,52111
40172,52118
40167,52153
40167,52162
40188,52163
40176,52181
40186,52196
40192,52217
40188,52247
40201,52285
40222,52301
40221,52321
40224,52341
40223,52334
40230,52351
40229,52316
40234,52310
40206,52302
40196,52279
40192,52251
40199,52246
40197,52246
40205,52232
40194,52223
40160,52235
40216,52234
40194,52240
40217,52270
40221,52301
40230,52272
40225,52274
40236,52298
40237,52333
40245,52337
40243,52347
40238,52374
40255,52387
40255,52403
40267,52410
40297,52451
40287,52440
40291,52460
40241,52475
40282,52493
40278,52513
40288,52527
40305,52536
40313,52545
40310,52559
40298,52588
40301,52576
40302,52589
40305,52599
40313,52597
40314,52616
40316,52634
40326,52632
40340,52654
40329,52660
40329,52667
40328,52675
40349,52676
40333,52691
40344,52701
40348,52738
40352,52754
40348,52742
40353,52755
40365,52751
40356,52776
40354,52765
40354,52777
40369,52792
40370,52780
40369,52808
40358,52803
40368,52803
40364,52827
40364,52833
40368,52846
40391,52858
40393,52869
40391,52854
40393,52862
40379,52869
40390,52883
40404,52902
40400,52915
40402,52929
40420,52934
40401,52950
40409,52942
40430,52975
40429,52970
40418,52987
40418,52983
40397,52965
40393,52907
40356,52804
40299,52622
40268,52454
40214,52301
40182,52162
40140,52085
40135,52025
40123,51987
40099,51958
40103,51956
40102,51958
40108,51958
40113,51968
40133,52000
40135,52013
40137,52053
40168,52066
40164,52073
40179,52100
40178,52120
40173,52123
40194,52135
40187,52138
40177,52164
40190,52164
40199,52200
40208,52209
40225,52256
40212,52272
40220,52275
40231,52309
40237,52316
40230,52316
40241,52324
40236,52315
40233,52287
40222,52285
40232,52268
40222,52231
40205,52218
40206,52227
40203,52222
40215,52218
40216,52220
40215,52219
40225,52249
40232,52241
40218,52251
40229,52268
40231,52293
40245,52312
40251,52310
40233,52336
40245,52352
40268,52366
40255,52381
40267,52407
40268,52413
40275,52424
40287,52427
40287,52457
40281,52484
40299,52477
40284,52496
40297,52503
40316,52509
40295,52527
40310,52540
40314,52548
40318,52556
40327,52569
40330,52583
40338,52593
40326,52602
40337,52620
40328,52618
40345,52627
40353,52637
40359,52649
40345,52662
40358,52681
40341,52707
40357,52695
40354,52707
40367,52721
40356,52722
40363,52717
40355,52750
40371,52744
40372,52760
40372,52758
40375,52780
40390,52776
40366,52783
40385,52798
40376,52806
40392,52806
40383,52823
40391,52828
40397,52841
40396,52844
40391,52848
40393,52863
40403,52882
40416,52871
40405,52901
40409,52908
40423,52916
40417,52928
40424,52935
40426,52946
40415,52958
40435,52972
40432,52982
40433,52983
40426,52985
40421,52976
40411,52952
40396,52882
40349,52753
40304,52567
40271,52411
40220,52276
40198,52178
40172,52091
40154,52058
40140,52038
40157,52022
40164,52033
40151,52027
40160,52053
40161,52075
40176,52107
40203,52136
40187,52161
40207,52174
40213,52195
40207,52239
40234,52264
40237,52271
40251,52294
40255,52307
40244,52325
40279,52357
40274,52386
40288,52411
40298,52429
40314,52456
40303,52469
40303,52479
40293,52468
40285,52464
40292,52462
40276,52424
40280,52384
40284,52404
40277,52360
40257,52343
40269,52340
40256,52337
40264,52342
40267,52317
40266,52351
40282,52360
40260,52361
40274,52379
40287,52406
40300,52416
40294,52431
40292,52464
40296,52474
40334,52480
40326,52513
40331,52509
40325,52533
40323,52553
40343,52587
40335,52607
40344,52596
40363,52592
40377,52636
40355,52652
40363,52642
40359,52675
40364,52680
40367,52694
40376,52699
40404,52722
40399,52717
40406,52738
40375,52739
40362,52751
40363,52767
40378,52766
40389,52794
40398,52794
40409,52801
40404,52808
40404,52821
40412,52815
40418,52853
40418,52834
40407,52848
40400,52849
40425,52860
40425,52873
40420,52888
40436,52892
40425,52891
40432,52898
40444,52904
40425,52907
40449,52933
40438,52920
40433,52933
40440,52937
40449,52960
40445,52970
40459,52972
40450,53003
40449,53012
40452,53015
40465,53023
40469,53028
40467,53035
40447,53016
40435,52982
40432,52900
40397,52769
40316,52608
40283,52442
40260,52307
40220,52193
40196,52130
40188,52096
40175,52061
40172,52033
40169,52047
40182,52045
40171,52053
40186,52086
40182,52088
40196,52118
40203,52158
40207,52158
40223,52186
40231,52205
40241,52223
40252,52240
40252,52239
40261,52272
40257,52261
40271,52295
40255,52307
40277,52342
40288,52378
40292,52397
40291,52416
40300,52428
40313,52443
40305,52426
40291,52430
40296,52412
40304,52399
40288,52384
40283,52378
40272,52363
40277,52346
40285,52346
40278,52334
40285,52351
40297,52348
40293,52383
40282,52383
40289,52397
40316,52412
40316,52419
40304,52428
40310,52438
40319,52450
40327,52471
40315,52493
40331,52503
40351,52525
40345,52543
40356,52553
40366,52565
40343,52585
40355,52586
40358,52598
40387,52627
40363,52640
40383,52647
40382,52666
40381,52671
40387,52688
40394,52697
40395,52713
40396,52719
40413,52721
40413,52737
40408,52749
40418,52762
40411,52773
40417,52784
40417,52796
40426,52796
40416,52803
40428,52816
40428,52832
40431,52830
40440,52853
40449,52860
40441,52879
40442,52866
40455,52871
40453,52891
40439,52899
40454,52924
40448,52914
40459,52925
40474,52933
40452,52935
40461,52952
40448,52938
40471,52963
40472,52952
40476,52970
40466,52988
40473,52996
40489,53006
40475,52997
40497,53025
40474,53030
40492,53035
40476,53053
40491,53064
40504,53075
40488,53077
40502,53091
40493,53082
40487,53065
40482,53022
40456,52942
40409,52798
40343,52610
40295,52460
40283,52331
40257,52243
40229,52162
40213,52138
40198,52107
40208,52095
40209,52103
40214,52103
40213,52131
40229,52135
40225,52173
40238,52196
40258,52225
40254,52241
40276,52256
40273,52267
40278,52291
40284,52314
40287,52316
40287,52342
40279,52363
40299,52366
40330,52392
40319,52410
40334,52433
40332,52454
40341,52489
40336,52500
40341,52503
40331,52504
40332,52506
40341,52481
40328,52469
40317,52453
40315,52439
40328,52426
40315,52412
40326,52410
40314,52406
40322,52417
40329,52424
40313,52426
40329,52437
40334,52440
40333,52476
40342,52475
40333,52489
40337,52521
40354,52532
40356,52512
40361,52566
40374,52572
40374,52578
40371,52608
40374,52603
40380,52624
40389,52636
40388,52649
40404,52669
40405,52705
40411,52700
40407,52703
40408,52714
40428,52747
40408,52734
40408,52754
40419,52770
40428,52772
40425,52790
40441,52792
40440,52800
40426,52815
40438,52818
40439,52830
40445,52830
40449,52842
40452,52850
40436,52881
40441,52887
40461,52880
40444,52846
40468,52894
40473,52900
40479,52913
40465,52923
40458,52937
40491,52952
40476,52957
40497,52960
40494,52964
40499,52985
40489,52997
40467,52983
40506,53002
40461,52992
40486,53006
40488,53016
40491,53030
40503,53021
40501,53037
40497,53056
40517,53067
40514,53077
40503,53078
40523,53098
40523,53098
40508,53115
40521,53117
40510,53136
40531,53131
40516,53125
40514,53102
40490,53047
40476,52942
40402,52792
40372,52629
40329,52488
40294,52381
40286,52290
40260,52250
40253,52203
40248,52211
40255,52176
40247,52209
40254,52237
40260,52247
40276,52277
40289,52302
40288,52332
40304,52364
40306,52404
40328,52406
40332,52436
40343,52448
40348,52473
40339,52481
40368,52507
40362,52548
40367,52578
40377,52607
40402,52621
40397,52661
40397,52671
40412,52681
40388,52673
40387,52673
40394,52642
40389,52630
40386,52607
40368,52580
40371,52571
40364,52567
40368,52559
40372,52537
40352,52536
40360,52544
40352,52555
40386,52582
40376,52586
40367,52608
40380,52613
40407,52626
40391,52653
40395,52660
40408,52660
40399,52684
40412,52683
40407,52707
40430,52732
40419,52748
40436,52763
40430,52773
40425,52788
40439,52810
40448,52825
40449,52835
40454,52843
40459,52851
40469,52859
40474,52870
40462,52882
40481,52885
40463,52894
40457,52907
40468,52906
40464,52932
40487,52920
40476,52939
40479,52946
40488,52957
40476,52963
40491,52986
40476,52990
40482,52984
40502,53009
40495,53006
40500,53020
40503,53023
40498,53040
40515,53026
40503,53055
40502,53050
40508,53067
40524,53067
40500,53081
40516,53078
40494,53086
40528,53081
40505,53103
40525,53114
40527,53119
40518,53130
40533,53129
40520,53134
40541,53142
40536,53160
40532,53174
40544,53171
40530,53189
40543,53186
40543,53198
40556,53186
40513,53149
40508,53074
40475,52954
40405,52756
40355,52609
40329,52463
40293,52367
40278,52283
40271,52238
40259,52226
40259,52209
40261,52218
40265,52234
40245,52231
40287,52255
40273,52264
40287,52317
40287,52316
40309,52350
40313,52372
40302,52396
40316,52390
40312,52414
40320,52421
40327,52435
40340,52448
40329,52465
40346,52500
40345,52517
40355,52536
40372,52562
40386,52573
40389,52598
40381,52611
40367,52611
40372,52608
40369,52589
40365,52596
40363,52571
40375,52543
40356,52532
40362,52532
40354,52535
40356,52506
40352,52512
40353,52527
40373,52532
40354,52542
40362,52570
40363,52576
40378,52585
40385,52594
40384,52611
40378,52622
40384,52639
40422,52664
40402,52667
40393,52681
40400,52698
40408,52724
40423,52746
40430,52745
40428,52767
40426,52779
40445,52792
40430,52804
40445,52800
40452,52824
40448,52838
40464,52849
40441,52858
40452,52863
40464,52888
40479,52880
40472,52880
40473,52901
40470,52916
40477,52910
40479,52924
40475,52947
40488,52946
40475,52967
40486,52951
40505,52976
40496,52989
40488,52999
40497,52999
40499,53035
40515,53031
40493,53019
40511,53025
40502,53059
40505,53021
40510,53054
40524,53061
40514,53064
40499,53071
40499,53104
40509,53078
40531,53096
40517,53103
40526,53113
40540,53120
40528,53125
40529,53127
40529,53152
40525,53188
40536,53142
40559,53159
40545,53188
40547,53193
40538,53207
40553,53212
40546,53196
40539,53176
40502,53102
40486,52979
40432,52803
40376,52652
40328,52526
40286,52402
40283,52334
40263,52282
40268,52254
40262,52247
40264,52242
40268,52256
40275,52278
40282,52287
40296,52306
40287,52330
40308,52356
40305,52387
40318,52420
40326,52441
40335,52450
40333,52449
40332,52475
40335,52487
40337,52501
40359,52516
40361,52550
40362,52570
40385,52591
40374,52617
40387,52649
40383,52655
40392,52660
40392,52654
40394,52646
40384,52652
40380,52635
40388,52599
40372,52595
40358,52588
40350,52564
40357,52565
40377,52565
40351,52561
40376,52582
40376,52579
40375,52577
40377,52591
40387,52631
40384,52637
40368,52644
40382,52647
40403,52673
40407,52696
40413,52688
40424,52711
40428,52714
40426,52738
40416,52744
40422,52773
40434,52793
40435,52790
40435,52799
40457,52827
40457,52818
40458,52826
40460,52839
40446,52860
40454,52861
40471,52886
40468,52887
40457,52907
40461,52906
40470,52936
40479,52918
40475,52946
40467,52958
40479,52953
40478,52960
40479,52978
40473,52982
40487,52973
40487,52990
40502,52998
40487,53001
40510,53003
40487,53010
40497,53032
40490,53026
40486,53046
40506,53043
40507,53039
40507,53062
40509,53078
40507,53076
40508,53098
40509,53074
40510,53090
40511,53109
40513,53106
40514,53118
40507,53130
40510,53133
40528,53139
40522,53145
40521,53168
40535,53165
40523,53178
40546,53184
40530,53194
40539,53205
40548,53184
40522,53158
40498,53078
40471,52974
40423,52808
40381,52654
40345,52549
40315,52433
40298,52379
40287,52319
40276,52316
40271,52309
40291,52312
40278,52317
40277,52328
40318,52364
40315,52406
40328,52431
40333,52458
40342,52487
40339,52502
40350,52537
40359,52557
40376,52581
40370,52589
40378,52608
40387,52637
40395,52669
40411,52697
40409,52720
40424,52734
40431,52771
40433,52793
40420,52788
40427,52765
40425,52763
40423,52745
40403,52751
40397,52711
40410,52701
40399,52688
40393,52665
40401,52664
40391,52676
40390,52670
40402,52657
40402,52688
40400,52688
40399,52697
40409,52730
40419,52739
40418,52755
40433,52778
40430,52783
40432,52798
40419,52822
40435,52820
40449,52835
40467,52842
40451,52872
40446,52896
40468,52901
40475,52913
40457,52920
40460,52929
40474,52943
40464,52939
40494,52970
40490,52977
40478,52990
40487,52992
40494,52995
40503,53024
40503,53018
40495,53042
40505,53045
40504,53051
40515,53066
40507,53070
40502,53053
40505,53089
40520,53096
40519,53097
40525,53091
40527,53119
40536,53126
40537,53127
40527,53136
40549,53149
40523,53148
40534,53157
40537,53160
40535,53177
40551,53186
40540,53186
40554,53188
40541,53199
40551,53198
40551,53196
40550,53206
40556,53231
40551,53232
40558,53233
40545,53243
40551,53264
40565,53266
40548,53282
40567,53280
40577,53288
40572,53285
40568,53288
40537,53296
40549,53231
40517,53141
40472,52999
40409,52819
40372,52670
40349,52548
40330,52455
40303,52392
40277,52348
40302,52344
40279,52334
40291,52339
40288,52343
40303,52357
40276,52378
40310,52397
40320,52444
40313,52475
40326,52496
40357,52488
40347,52490
40361,52541
40361,52537
40363,52550
40360,52581
40365,52597
40381,52612
40380,52662
40408,52681
40417,52712
40413,52713
40389,52739
40388,52739
40415,52743
40385,52733
40406,52724
40416,52698
40400,52700
40416,52696
40400,52692
40395,52673
40404,52669
40396,52682
40384,52660
40398,52676
40390,52685
40391,52706
40408,52701
40412,52716
40420,52732
40409,52751
40426,52750
40436,52765
40435,52784
40426,52794
40437,52822
40443,52822
40466,52835
40442,52860
40450,52880
40446,52896
40454,52903
40462,52910
40462,52922
40463,52951
40474,52950
40487,52969
40482,52968
40471,52982
40501,53010
40495,52999
40499,53004
40493,53018
40510,53014
40492,53034
40490,53025
40493,53057
40500,53067
40514,53069
40519,53093
40508,53100
40518,53114
40534,53109
40540,53117
40523,53119
40550,53143
40533,53151
40540,53148
40529,53175
40533,53157
40530,53164
40541,53172
40535,53180
40538,53186
40553,53188
40564,53208
40531,53210
40553,53229
40543,53217
40553,53243
40558,53237
40562,53247
40561,53247
40555,53268
40553,53258
40556,53273
40577,53268
40565,53286
40564,53299
40575,53302
40575,53319
40567,53337
40577,53342
40589,53344
40590,53373
40594,53369
40599,53360
40578,53356
40572,53296
40540,53217
40502,53070
40462,52874
40392,52741
40369,52633
40340,52531
40320,52473
40316,52447
40311,52422
40327,52433
40324,52439
40326,52450
40315,52476
40338,52509
40348,52524
40360,52555
40355,52572
40371,52613
40370,52624
40392,52651
40397,52666
40399,52682
40399,52700
40403,52728
40406,52735
40411,52755
40420,52794
40434,52808
40440,52826
40441,52868
40462,52877
40446,52874
40465,52873
40448,52869
40452,52869
40436,52856
40429,52830
40429,52808
40419,52799
40425,52787
40415,52774
40422,52778
40410,52788
40416,52785
40414,52789
40422,52796
40424,52821
40431,52822
40421,52830
40440,52859
40458,52870
40444,52885
40458,52894
40437,52897
40465,52916
40468,52926
40470,52961
40485,52968
40483,52967
40479,52985
40497,52986
40496,53012
40494,53028
40486,53045
40498,53049
40510,53077
40510,53094
40502,53102
40519,53112
40529,53115
40526,53109
40527,53130
40524,53150
40523,53141
40533,53163
40539,53148
40539,53164
40539,53179
40531,53186
40544,53186
40554,53209
40559,53215
40544,53216
40540,53236
40561,53238
40548,53244
40561,53250
40547,53253
40561,53256
40577,53259
40567,53295
40570,53282
40570,53274
40577,53306
40577,53304
40567,53312
40567,53320
40576,53315
40585,53336
40587,53332
40580,53344
40582,53355
40600,53368
40584,53366
40598,53373
40590,53386
40598,53409
40602,53407
40604,53410
40608,53415
40590,53437
40600,53429
40607,53429
40595,53385
40589,53329
40537,53239
40504,53087
40455,52928
40424,52801
40397,52720
40371,52638
40366,52582
40347,52567
40354,52567
40361,52568
40373,52607
40367,52610
40391,52651
40412,52672
40412,52719
40422,52778
40411,52779
40441,52791
40437,52826
40452,52846
40463,52844
40464,52891
40459,52912
40466,52915
40484,52976
40492,52971
40492,52996
40508,53040
40520,53063
40500,53082
40499,53068
40511,53080
40506,53085
40495,53078
40504,53060
40479,52976
40473,52980
40480,52952
40465,52961
40494,52958
40482,52964
40485,52975
40481,52974
40485,52982
40494,53001
40514,53032
40511,53025
40505,53040
40484,53049
40487,53065
40510,53073
40507,53091
40524,53097
40513,53120
40526,53114
40516,53136
40524,53141
40530,53155
40542,53181
40533,53188
40545,53185
40535,53202
40543,53205
40541,53222
40551,53228
40558,53241
40548,53240
40562,53257
40570,53257
40565,53245
40582,53263
40563,53288
40572,53292
40572,53289
40574,53301
40569,53312
40573,53309
40578,53318
40568,53351
40583,53333
40574,53339
40578,53341
40585,53376
40580,53360
40581,53375
40584,53382
40590,53378
40593,53404
40591,53414
40587,53401
40595,53420
40602,53426
40601,53410
40579,53432
40577,53427
40589,53444
40603,53453
40596,53452
40611,53454
40608,53477
40609,53475
40609,53488
40626,53504
40607,53487
40616,53512
40614,53498
40593,53473
40587,53432
40570,53357
40536,53229
40479,53066
40432,52909
40409,52798
40375,52717
40377,52643
40356,52605
40355,52585
40365,52586
40367,52598
40367,52608
40361,52621
40374,52663
40393,52689
40398,52694
40412,52726
40410,52738
40403,52771
40423,52774
40417,52816
40409,52831
40416,52835
40440,52852
40438,52855
40428,52885
40434,52897
40457,52943
40463,52963
40479,52983
40486,53007
40484,53014
40467,53027
40477,53016
40475,53007
40484,53015
40468,52993
40477,52989
40473,52962
40449,52964
40457,52952
40460,52947
40457,52933
40454,52972
40453,52962
40446,52963
40468,52960
40472,52976
40471,52996
40468,53016
40476,53013
40487,53046
40487,53055
40490,53073
40483,53077
40503,53108
40512,53121
40511,53126
40509,53130
40530,53147
40523,53157
40519,53181
40538,53176
40516,53195
40533,53206
40527,53222
40544,53200
40524,53239
40553,53249
40541,53257
40546,53251
40527,53263
40554,53262
40545,53284
40545,53303
40572,53310
40554,53319
40540,53321
40573,53331
40573,53333
40565,53327
40570,53350
40568,53341
40578,53354
40584,53363
40582,53377
40582,53384
40585,53382
40574,53403
40591,53405
40580,53402
40586,53424
40584,53449
40590,53430
40575,53428
40586,53434
40600,53456
40600,53447
40589,53456
40591,53474
40592,53458
40588,53472
40595,53483
40619,53481
40613,53504
40585,53503
40614,53504
40590,53527
40612,53530
40601,53545
40617,53542
40605,53542
40608,53552
40601,53530
40590,53472
40562,53383
40529,53255
40474,53092
40439,52957
40391,52850
40389,52773
40357,52704
40360,52675
40363,52667
40368,52665
40351,52696
40376,52692
40399,52730
40403,52744
40409,52771
40398,52805
40422,52841
40421,52866
40424,52874
40440,52908
40437,52931
40450,52953
40444,52943
40455,52965
40456,52979
40464,52994
40464,53032
40485,53071
40503,53095
40489,53103
40508,53114
40510,53130
40511,53134
40494,53110
40498,53116
40499,53095
40490,53090
40498,53086
40476,53067
40495,53049
40471,53031
40464,53041
40473,53043
40481,53049
40483,53050
40482,53058
40488,53065
40492,53066
40475,53099
40488,53128
40488,53104
40510,53126
40496,53140
40513,53162
40512,53168
40517,53189
40512,53197
40547,53209
40526,53215
40533,53229
40517,53250
40523,53272
40526,53278
40544,53279
40543,53267
40543,53295
40546,53309
40565,53317
40555,53330
40554,53341
40560,53346
40565,53339
40564,53354
40589,53368
40584,53376
40586,53379
40558,53404
40482,53058
40553,53408
40583,53424
40585,53442
40581,53428
40555,53432
40585,53438
40590,53438
40584,53461
40588,53464
40586,53476
40593,53470
40595,53470
40587,53480
40592,53486
40601,53506
40580,53498
40604,53503
40589,53514
40594,53519
40589,53526
40611,53534
40592,53542
40621,53545
40614,53571
40590,53554
40615,53573
40614,53585
40610,53602
40614,53585
40604,53586
40616,53583
40612,53552
40588,53495
40547,53414
40524,53299
40496,53162
40442,52997
40421,52916
40402,52856
40382,52807
40379,52770
40383,52778
40387,52768
40390,52800
40395,52831
40400,52859
40413,52888
40426,52919
40437,52946
40444,52990
40461,53007
40454,53041
40456,53052
40485,53089
40485,53081
40485,53109
40487,53134
40499,53166
40500,53197
40524,53224
40536,53238
40525,53268
40539,53266
40543,53262
40528,53271
40529,53262
40524,53249
40514,53240
40520,53250
40512,53190
40509,53213
40507,53192
40498,53187
40509,53155
40491,53163
40496,53182
40503,53188
40510,53196
40516,53196
40513,53226
40521,53238
40521,53232
40515,53259
40528,53254
40534,53287
40544,53302
40532,53286
40542,53304
40550,53331
40561,53344
40552,53346
40548,53355
40548,53357
40551,53384
40552,53387
40566,53394
40571,53394
40566,53398
40557,53422
40572,53417
40562,53426
40571,53443
40568,53454
40571,53460
40585,53460
40580,53464
40568,53464
40573,53472
40588,53488
40596,53514
40599,53505
40601,53509
40591,53518
40588,53540
40597,53530
40601,53547
40588,53545
40598,53544
40605,53567
40595,53562
40599,53585
40595,53574
40601,53584
40599,53585
40608,53589
40596,53593
40609,53610
40615,53606
40609,53606
40622,53640
40620,53629
40616,53640
40615,53650
40608,53653
40618,53651
40612,53664
40620,53654
40622,53653
40599,53613
40564,53571
40567,53438
40510,53303
40457,53160
40421,53015
40412,52921
40401,52889
40386,52818
40372,52795
40382,52790
40384,52797
40380,52805
40392,52842
40399,52850
40403,52876
40407,52916
40422,52935
40421,52939
40421,52981
40427,52995
40438,53020
40444,53028
40438,53039
40457,53060
40443,53067
40464,53092
40444,53110
40466,53121
40483,53147
40476,53177
40496,53194
40494,53205
40498,53217
40493,53227
40484,53218
40485,53225
40484,53207
40489,53187
40471,53180
40483,53161
40484,53159
40462,53146
40466,53149
40480,53157
40470,53148
40473,53165
40479,53161
40479,53175
40489,53178
40483,53194
40486,53195
40477,53207
40503,53241
40509,53247
40510,53259
40515,53269
40520,53284
40511,53296
40513,53310
40527,53310
40523,53331
40524,53337
40528,53360
40519,53368
40534,53376
40547,53397
40548,53389
40545,53401
40528,53406
40552,53419
40556,53438
40545,53440
40543,53444
40550,53459
40576,53451
40554,53475
40562,53474
40552,53480
40562,53493
40555,53492
40578,53515
40563,53518
40550,53520
40574,53511
40572,53528
40562,53560
40583,53552
40584,53545
40577,53554
40568,53563
40578,53569
40595,53578
40572,53573
40582,53595
40582,53594
40519,53368
40581,53591
40584,53643
40573,53657
40601,53634
40586,53606
40598,53633
40575,53641
40606,53658
40598,53681
40602,53689
40605,53690
40604,53698
40623,53694
40607,53685
40628,53673
40572,53621
40533,53543
40563,53518
40478,53299
40429,53150
40396,53003
40383,52954
40374,52886
40360,52867
40371,52835
40364,52822
40377,52839
40371,52859
40376,52880
40378,52897
40391,52934
40400,52961
40407,52968
40420,53004
40419,53026
40428,53041
40430,53067
40429,53071
40446,53084
40458,53107
40448,53115
40463,53146
40456,53173
40463,53182
40480,53218
40483,53232
40485,53252
40492,53270
40482,53257
40480,53261
40489,53267
40481,53254
40498,53243
40468,53218
40477,53210
40469,53203
40474,53201
40465,53199
40467,53190
40475,53189
40467,53190
40453,53213
40465,53214
40479,53235
40494,53226
40475,53260
40489,53254
40470,53267
40490,53281
40495,53274
40480,53310
40508,53308
40510,53323
40499,53344
40506,53344
40510,53365
40517,53360
40529,53388
40522,53404
40525,53408
40514,53404
40517,53423
40541,53418
40536,53443
40534,53448
40537,53463
40543,53454
40529,53472
40550,53475
40555,53480
40540,53476
40546,53493
40549,53509
40529,53495
40544,53512
40542,53518
40542,53522
40551,53521
40568,53548
40552,53545
40557,53545
40546,53552
40574,53571
40566,53572
40552,53575
40560,53579
40554,53583
40556,53584
40573,53596
40553,53606
40569,53593
40563,53612
40568,53643
40579,53635
40578,53633
40574,53632
40578,53653
40583,53638
40585,53657
40580,53678
40593,53673
40581,53681
40580,53697
40593,53704
40573,53684
40584,53670
40565,53641
40539,53549
40506,53460
40473,53314
40437,53183
40400,53053
40374,52996
40373,52937
40367,52905
40365,52880
40355,52902
40373,52912
40374,52917
40379,52942
40374,52979
40369,52997
40408,53050
40420,53075
40419,53101
40418,53113
40430,53135
40435,53158
40455,53171
40438,53194
40458,53213
40448,53233
40475,53275
40480,53295
40493,53317
40497,53335
40491,53349
40504,53354
40506,53353
40493,53344
40483,53341
40480,53334
40487,53321
40485,53312
40466,53305
40466,53273
40478,53270
40466,53260
40462,53262
40472,53264
40460,53262
40460,53287
40487,53300
40468,53303
40479,53291
40482,53319
40473,53342
40486,53336
40489,53361
40507,53363
40500,53378
40506,53399
40496,53411
40509,53420
40516,53426
40522,53431
40523,53443
40503,53451
40524,53470
40523,53473
40527,53487
40537,53496
40521,53493
40529,53519
40533,53514
40530,53521
40531,53520
40551,53533
40537,53532
40541,53534
40543,53577
40538,53570
40552,53590
40549,53583
40540,53589
40544,53600
40559,53601
40554,53610
40548,53625
40556,53631
40551,53626
40562,53632
40564,53626
40556,53645
40567,53641
40569,53652
40536,53632
40549,53657
40556,53651
40559,53668
40571,53667
40564,53681
40559,53693
40574,53693
40570,53708
40568,53709
40579,53711
40572,53715
40566,53697
40553,53652
40533,53588
40506,53474
40459,53330
40418,53186
40380,53074
40375,52986
40349,52940
40343,52889
40337,52872
40335,52856
40344,52873
40335,52887
40346,52911
40347,52919
40379,52953
40380,52975
40382,53003
40382,53007
40389,53046
40402,53098
40408,53116
40393,53104
40407,53104
40404,53130
40412,53133
40422,53163
40428,53193
40440,53238
40457,53246
40444,53274
40451,53289
40470,53262
40476,53278
40451,53276
40464,53274
40421,53262
40380,53074
40442,53242
40455,53220
40439,53226
40436,53212
40432,53214
40437,53220
40439,53218
40438,53227
40439,53247
40449,53256
40454,53259
40451,53258
40437,53267
40448,53296
40447,53301
40450,53292
40455,53325
40475,53316
40466,53356
40465,53367
40474,53361
40482,53377
40482,53395
40474,53405
40488,53421
40484,53432
40490,53430
40477,53453
40509,53449
40492,53463
40502,53493
40508,53473
40499,53491
40502,53489
40507,53500
40505,53503
40516,53495
40511,53522
40510,53524
40514,53530
40504,53554
40507,53557
40517,53553
40519,53556
40523,53580
40503,53585
40512,53566
40518,53597
40524,53599
40530,53619
40534,53621
40525,53624
40540,53629
40528,53652
40527,53640
40522,53641
40538,53649
40534,53647
40528,53647
40535,53670
40542,53667
40547,53671
40548,53682
40545,53692
40555,53700
40552,53710
40558,53727
40545,53735
40550,53722
40548,53724
40545,53729
40544,53672
40522,53601
40484,53504
40446,53374
40411,53230
40369,53097
40348,53002
40336,52944
40317,52900
40312,52870
40296,52883
40314,52865
40319,52887
40325,52905
40340,52928
40349,52960
40351,52982
40359,53014
40362,53020
40373,53043
40376,53074
40379,53082
40396,53097
40387,53109
40398,53130
40391,53152
40397,53165
40405,53186
40416,53204
40415,53235
40424,53265
40421,53267
40428,53298
40424,53292
40438,53292
40427,53293
40430,53280
40417,53285
40440,53262
40421,53252
40418,53232
40413,53228
40413,53205
40404,53220
40408,53236
40409,53211
40415,53218
40404,53232
40419,53241
40420,53256
40408,53264
40427,53277
40439,53298
40431,53305
40426,53311
40433,53322
40444,53331
40464,53347
40455,53381
40438,53372
40460,53379
40441,53388
40446,53402
40470,53418
40457,53413
40462,53433
40460,53438
40467,53451
40473,53449
40469,53453
40479,53489
40473,53488
40476,53492
40483,53514
40473,53492
40490,53510
40487,53528
40483,53518
40482,53523
40474,53522
40488,53536
40475,53546
40491,53547
40499,53561
40495,53575
40510,53553
40510,53572
40512,53580
40496,53587
40498,53605
40498,53585
40519,53592
40489,53611
40503,53630
40496,53623
40505,53624
40511,53637
40499,53638
40514,53654
40500,53641
40490,53609
40500,53556
40462,53485
40425,53378
40379,53245
40355,53111
40317,53006
40309,52957
40304,52918
40308,52886
40286,52883
40309,52902
40303,52899
40318,52931
40308,52956
40324,52997
40320,53014
40346,53031
40341,53079
40368,53090
40366,53113
40369,53130
40385,53165
40383,53179
40389,53188
40395,53216
40399,53241
40402,53270
40423,53304
40433,53300
40435,53335
40446,53342
40430,53334
40439,53333
40427,53334
40419,53303
40405,53302
40403,53288
40421,53270
40403,53254
40390,53240
40401,53252
40398,53236
40390,53240
40397,53258
40396,53235
40412,53229
40408,53267
40420,53270
40409,53281
40419,53306
40417,53310
40421,53339
40427,53346
40445,53342
40427,53389
40454,53381
40447,53386
40435,53392
40447,53416
40449,53415
40452,53428
40455,53419
40459,53434
40446,53431
40463,53449
40463,53469
40469,53466
40459,53479
40466,53492
40470,53492
40487,53495
40498,53497
40494,53513
40464,53530
40482,53519
40447,53520
40471,53544
40486,53558
40479,53581
40480,53583
40497,53582
40494,53602
40490,53599
40489,53612
40488,53618
40479,53593
40473,53562
40445,53507
40431,53398
40378,53275
40347,53122
40312,53009
40293,52936
40284,52875
40261,52838
40257,52808
40256,52823
40282,52820
40263,52826
40271,52847
40273,52884
40293,52906
40297,52914
40297,52935
40310,52937
40308,52962
40313,52980
40322,52981
40320,53020
40342,53011
40338,53040
40345,53064
40346,53078
40360,53107
40363,53141
40373,53149
40360,53184
40387,53210
40379,53200
40386,53210
40380,53209
40390,53193
40369,53193
40360,53181
40371,53161
40363,53154
40366,53137
40359,53148
40364,53128
40356,53130
40367,53134
40364,53141
40351,53141
40367,53166
40363,53157
40370,53175
40362,53173
40367,53204
40382,53221
40380,53225
40395,53248
40394,53275
40395,53268
40409,53291
40385,53296
40405,53308
40413,53313
40401,53335
40411,53333
40408,53344
40418,53371
40417,53347
40432,53375
40432,53365
40422,53383
40438,53394
40411,53410
40424,53408
40446,53431
40450,53437
40435,53463
40443,53452
40442,53463
40443,53472
40455,53448
40439,53442
40428,53420
40392,53346
40371,53250
40324,53121
40295,52973
40262,52886
40263,52837
40237,52769
40246,52736
40229,52714
40233,52706
40237,52726
40239,52737
40253,52749
40240,52760
40260,52766
40248,52783
40258,52806
40267,52809
40267,52833
40277,52836
40280,52858
40269,52870
40292,52873
40281,52881
40287,52905
40311,52931
40300,52958
40315,52982
40325,53024
40331,53044
40337,53049
40349,53066
40337,53080
40338,53084
40349,53072
40326,53048
40322,53046
40329,53044
40323,53033
40312,53014
40306,53007
40312,53011
40308,52998
40318,53019
40312,53015
40321,53029
40328,53042
40311,53057
40335,53066
40330,53062
40334,53101
40345,53105
40359,53125
40344,53117
40358,53137
40362,53134
40361,53163
40357,53170
40356,53175
40374,53198
40370,53219
40376,53213
40367,53229
40378,53248
40382,53240
40389,53250
40392,53262
40406,53290
40406,53293
40399,53311
40402,53314
40398,53319
40410,53335
40412,53355
40415,53357
40417,53365
40390,53361
40413,53359
40403,53335
40378,53294
40357,53185
40317,53081
40274,52923
40247,52818
40227,52754
40208,52680
40197,52625
40194,52612
40216,52589
40190,52621
40208,52613
40203,52622
40207,52635
40216,52658
40227,52655
40214,52672
40224,52694
40247,52702
40245,52719
40252,52728
40241,52735
40257,52740
40263,52753
40258,52781
40267,52794
40261,52817
40291,52840
40293,52892
40302,52920
40311,52924
40306,52937
40293,52948
40311,52939
40293,52939
40288,52918
40286,52910
40291,52895
40291,52880
40285,52880
40279,52874
40283,52865
40281,52865
40277,52861
40282,52845
40283,52888
40271,52906
40284,52901
40311,52913
40291,52933
40310,52942
40305,52955
40304,52964
40298,52988
40335,52996
40317,53016
40318,53014
40319,53035
40333,53044
40333,53095
40339,53055
40335,53076
40346,53083
40349,53099
40363,53111
40341,53115
40366,53143
40362,53136
40365,53151
40361,53165
40364,53170
40381,53186
40376,53192
40356,53189
40365,53198
40277,52861
40357,53221
40371,53200
40391,53233
40383,53226
40376,53236
40379,53242
40395,53265
40387,53249
40387,53268
40397,53268
40403,53274
40388,53285
40395,53288
40398,53306
40399,53305
40395,53304
40390,53310
40406,53315
40412,53314
40398,53317
40405,53332
40403,53336
40397,53349
40401,53352
40418,53355
40406,53368
40423,53367
40416,53379
40434,53384
40426,53389
40419,53396
40423,53404
40410,53380
40397,53348
40387,53282
40350,53139
40291,52980
40253,52833
40227,52713
40187,52640
40176,52575
40178,52528
40165,52505
40161,52499
40156,52508
40177,52522
40173,52561
40185,52565
40185,52575
40201,52610
40199,52633
40218,52651
40225,52660
40219,52698
40233,52708
40224,52733
40222,52742
40240,52747
40255,52774
40256,52804
40270,52833
40279,52873
40268,52890
40301,52895
40300,52913
40282,52915
40290,52898
40265,52894
40259,52880
40275,52839
40257,52843
40242,52836
40246,52801
40264,52779
40260,52777
40237,52778
40246,52792
40255,52792
40260,52805
40266,52812
40264,52839
40263,52830
40282,52858
40273,52875
40270,52882
40285,52895
40287,52908
40289,52930
40291,52932
40277,52949
40296,52967
40299,52973
40301,52978
40315,52998
40313,52997
40322,53027
40317,53031
40309,53047
40305,53050
40328,53063
40317,53062
40330,53077
40333,53086
40332,53097
40326,53109
40328,53123
40327,53131
40334,53134
40341,53150
40348,53142
40346,53144
40352,53157
40340,53167
40356,53176
40354,53184
40347,53188
40353,53195
40351,53207
40349,53214
40361,53219
40365,53218
40365,53236
40369,53231
40367,53239
40368,53247
40369,53251
40368,53254
40376,53275
40367,53264
40367,53285
40369,53269
40372,53294
40374,53275
40370,53310
40395,53301
40388,53306
40386,53345
40403,53333
40397,53342
40390,53346
40383,53355
40412,53367
40383,53358
40375,53352
40380,53300
40352,53191
40297,53014
40237,52850
40186,52704
40164,52572
40126,52503
40113,52459
40095,52417
40102,52405
40104,52397
40125,52404
40123,52397
40106,52417
40115,52420
40131,52456
40133,52476
40146,52465
40149,52477
40144,52487
40163,52533
40159,52530
40164,52553
40159,52547
40161,52568
40163,52584
40176,52596
40174,52636
40181,52643
40186,52672
40195,52682
40189,52695
40200,52706
40196,52697
40213,52701
40189,52705
40195,52693
40188,52659
40187,52650
40163,52637
40176,52619
40153,52624
40160,52622
40179,52617
40175,52628
40182,52632
40193,52637
40190,52657
40195,52667
40194,52681
40182,52684
40187,52711
40198,52715
40200,52721
40211,52743
40211,52745
40223,52762
40209,52784
40215,52785
40217,52795
40236,52811
40234,52829
40220,52854
40247,52844
40232,52866
40235,52880
40239,52874
40253,52886
40243,52912
40255,52920
40241,52914
40245,52922
40258,52946
40257,52945
40261,52949
40272,52970
40271,52980
40283,52998
40264,53018
40275,53012
40280,53027
40280,53025
40286,53028
40302,53053
40264,53059
40281,53070
40290,53093
40304,53101
40304,53107
40285,53095
40304,53078
40311,53112
40306,53119
40306,53143
40319,53152
40326,53164
40306,53180
40309,53184
40311,53173
40346,53189
40342,53195
40326,53211
40297,53217
40329,53198
40328,53227
40332,53235
40324,53250
40357,53257
40345,53254
40340,53265
40353,53299
40351,53310
40354,53303
40341,53308
40342,53306
40347,53291
40308,53220
40285,53118
40233,52947
40178,52800
40139,52635
40111,52533
40086,52468
40066,52436
40071,52402
40068,52384
40077,52394
40072,52405
40078,52415
40090,52429
40094,52465
40087,52465
40103,52482
40100,52495
40125,52517
40125,52541
40140,52542
40127,52568
40130,52571
40139,52574
40134,52583
40138,52608
40151,52641
40161,52657
40163,52677
40172,52701
40160,52713
40181,52729
40169,52732
40180,52736
40163,52717
40152,52711
40157,52699
40148,52671
40142,52650
40148,52632
40128,52624
40139,52624
40139,52628
40128,52631
40132,52626
40119,52633
40137,52653
40128,52671
40143,52653
40154,52690
40155,52691
40152,52714
40171,52730
40165,52726
40170,52745
40175,52747
40149,52772
40181,52782
40169,52790
40186,52805
40199,52800
40184,52806
40172,52837
40170,52851
40197,52851
40197,52862
40188,52867
40201,52884
40200,52888
40201,52893
40202,52898
40198,52918
40206,52918
40221,52918
40196,52930
40213,52937
40216,52925
40218,52937
40203,52953
40233,52949
40216,52954
40212,52957
40192,52982
40208,52979
40211,52975
40232,52996
40226,53007
40212,52990
40215,53011
40216,53009
40219,53020
40219,53013
40227,53028
40217,53033
40228,53027
40216,53038
40226,53039
40218,53035
40212,53048
40228,53064
40245,53066
40234,53057
40236,53070
40247,53086
40236,53107
40236,53107
40227,53109
40250,53127
40236,53124
40232,53142
40241,53148
40247,53125
40235,53094
40208,53026
40170,52922
40116,52772
40078,52617
40041,52513
40024,52428
40018,52379
39989,52330
39992,52340
39994,52308
39992,52320
40002,52321
39993,52329
40006,52349
40013,52366
40023,52376
40028,52397
40036,52431
40046,52455
40034,52446
40046,52481
40058,52493
40060,52508
40073,52525
40071,52545
40083,52586
40095,52608
40098,52638
40089,52667
40113,52683
40108,52695
40113,52703
40114,52689
40108,52663
40094,52638
40101,52632
40081,52589
40091,52575
40072,52563
40086,52571
40081,52574
40076,52560
40089,52575
40082,52590
40085,52595
40089,52617
40087,52634
40094,52649
40103,52675
40116,52693
40114,52698
40118,52711
40115,52732
40130,52740
40135,52748
40142,52779
40147,52803
40147,52807
40139,52844
40152,52848
40161,52861
40165,52875
40148,52885
40161,52893
40159,52904
40163,52911
40175,52911
40179,52925
40193,52949
40197,52960
40179,52964
40177,52975
40204,52976
40182,53012
40187,53015
40218,53017
40207,53017
40212,53036
40211,53051
40208,53054
40210,53072
40214,53087
40207,53100
40208,53097
40238,53096
40213,53110
40229,53129
40220,53141
40234,53143
40234,53157
40228,53154
40242,53167
40243,53175
40230,53186
40228,53205
40241,53194
40249,53213
40237,53226
40238,53222
40253,53232
40291,53240
40261,53256
40243,53274
40260,53281
40264,53290
40245,53284
40246,53193
40197,53051
40135,52877
40101,52753
40053,52635
40014,52524
40012,52466
39988,52410
39977,52404
39980,52388
40014,52386
40014,52384
39994,52403
40000,52408
39982,52428
40004,52458
40012,52470
40013,52498
40030,52516
40037,52536
40053,52548
40041,52556
40047,52564
40056,52568
40050,52589
40063,52602
40078,52620
40067,52653
40076,52668
40078,52705
40094,52735
40083,52754
40098,52752
40094,52745
40114,52745
40096,52731
40086,52707
40093,52695
40072,52694
40058,52667
40066,52675
40071,52637
40072,52661
40062,52664
40072,52655
40074,52679
40077,52691
40079,52674
40067,52689
40080,52715
40088,52735
40096,52740
40087,52742
40107,52754
40093,52769
40098,52805
40103,52815
40099,52813
40114,52840
40107,52844
40118,52858
40114,52875
40135,52870
40119,52896
40133,52903
40138,52899
40128,52928
40142,52936
40135,52951
40144,52955
40160,52971
40154,52996
40142,52997
40173,53000
40155,53031
40160,53032
40167,53048
40162,53034
40162,53051
40182,53062
40180,53072
40190,53077
40190,53095
40193,53085
40190,53101
40192,53106
40193,53125
40204,53127
40190,53148
40201,53141
40203,53157
40199,53149
40208,53186
40189,53195
40215,53187
40215,53189
40205,53196
40222,53202
40207,53208
40225,53222
40213,53216
40226,53246
40222,53239
40230,53251
40223,53251
40237,53270
40217,53293
40242,53284
40237,53286
40236,53300
40241,53313
40241,53339
40254,53322
40237,53324
40248,53311
40212,53231
40174,53129
40131,52944
40076,52789
40035,52645
40012,52542
39989,52492
39970,52464
39974,52437
39965,52436
39985,52421
39966,52444
39982,52443
39992,52488
39989,52500
39998,52519
40001,52546
40020,52543
40021,52585
40030,52588
40027,52616
40032,52630
40043,52664
40044,52663
40053,52660
40057,52692
40060,52712
40068,52743
40078,52775
40080,52796
40082,52828
40088,52829
40094,52819
40088,52817
40084,52798
40072,52790
40063,52775
40061,52751
40055,52729
40061,52711
40036,52699
40043,52694
40041,52693
40055,52697
40051,52708
40059,52727
40052,52722
40045,52730
40064,52747
40065,52751
40075,52777
40080,52782
40075,52807
40066,52824
40094,52814
40096,52836
40094,52846
40106,52859
40094,52881
40085,52900
40115,52891
40116,52905
40115,52922
40113,52926
40121,52937
40133,52955
40119,52983
40131,52981
40119,52978
40118,52999
40119,52999
40144,53018
40138,53040
40141,53022
40161,53034
40158,53059
40144,53065
40151,53071
40156,53073
40162,53085
40156,53100
40155,53103
40159,53103
40177,53129
40159,53120
40168,53125
40182,53128
40173,53140
40184,53159
40199,53182
40182,53169
40188,53180
40184,53182
40194,53189
40189,53189
40188,53197
40198,53219
40206,53208
40200,53229
40199,53257
40186,53243
40216,53246
40207,53260
40209,53279
40216,53274
40219,53291
40218,53300
40210,53307
40220,53309
40230,53332
40228,53335
40238,53341
40219,53342
40233,53313
40203,53278
40184,53163
40105,52997
40079,52834
40015,52678
39992,52573
39972,52516
39972,52471
39958,52458
39956,52432
39946,52422
39953,52442
39981,52460
39977,52464
39990,52513
39967,52521
40003,52542
40014,52600
40013,52630
40032,52663
40036,52621
40046,52661
40040,52670
40047,52726
40055,52740
40071,52775
40085,52805
40069,52821
40115,52853
40104,52883
40137,52878
40100,52893
40086,52881
40069,52865
40074,52854
40067,52824
40066,52815
40058,52776
40062,52777
40060,52757
40062,52750
40059,52741
40070,52740
40063,52753
40066,52770
40072,52797
40085,52800
40061,52814
40073,52820
40099,52833
40099,52865
40094,52873
40104,52886
40115,52906
40112,52914
40123,52919
40108,52925
40125,52954
40120,52958
40126,52983
40127,52985
40132,52996
40132,53001
40150,53024
40144,53026
40155,53033
40152,53056
40141,53055
40154,53077
40154,53076
40151,53075
40164,53099
40169,53111
40167,53117
40172,53116
40168,53131
40170,53125
40168,53157
40196,53153
40194,53164
40193,53186
40187,53180
40198,53188
40195,53212
40198,53213
40205,53235
40213,53223
40203,53241
40209,53241
40215,53260
40200,53279
40202,53284
40212,53279
40214,53284
40213,53298
40215,53304
40229,53312
40224,53316
40217,53303
40220,53311
40221,53329
40241,53318
40246,53345
40226,53356
40238,53344
40238,53367
40239,53378
40223,53386
40255,53380
40242,53398
40243,53415
40262,53422
40247,53403
40242,53381
40210,53300
40179,53210
40119,53011
40083,52842
40030,52672
39998,52568
40000,52482
39986,52455
39975,52407
39963,52413
39955,52390
39958,52404
39959,52427
39967,52447
39975,52470
39988,52487
39994,52515
40014,52539
40003,52574
39990,52595
40018,52600
40018,52612
40035,52634
40031,52641
40034,52662
40048,52673
40045,52693
40068,52727
40063,52747
40072,52797
40074,52783
40085,52812
40080,52827
40094,52831
40093,52835
40088,52822
40088,52812
40072,52786
40056,52766
40066,52757
40060,52737
40055,52719
40063,52705
40042,52716
40067,52734
40053,52723
40055,52747
40066,52760
40069,52767
40081,52781
40078,52803
40087,52804
40083,52832
40085,52834
40098,52871
40120,52868
40110,52873
40111,52891
40110,52916
40109,52926
40119,52952
40121,52946
40127,52967
40132,52984
40139,52987
40155,53008
40141,53010
40147,53037
40156,53025
40168,53037
40143,53047
40165,53065
40154,53063
40164,53059
40180,53087
40177,53103
40182,53109
40174,53120
40171,53126
40177,53139
40189,53149
40195,53158
40193,53176
40190,53167
40188,53175
40257,53369
40251,53394
40242,53369
40260,53399
40257,53410
40263,53409
40263,53420
40255,53394
40237,53362
40219,53275
40187,53149
40126,52968
40081,52817
40040,52657
40015,52556
40000,52484
39984,52458
39977,52437
39968,52454
39984,52444
39988,52479
39992,52491
40002,52527
40007,52541
40023,52584
40049,52616
40051,52626
40051,52671
40073,52690
40068,52740
40075,52740
40086,52770
40085,52776
40096,52801
40098,52847
40107,52861
40164,52896
40137,52921
40138,52943
40143,52969
40136,52959
40132,52979
40132,52931
40124,52887
40128,52868
40104,52869
40113,52838
40113,52815
40103,52810
40100,52803
40098,52802
40100,52811
40125,52819
40129,52830
40136,52847
40103,52854
40088,52876
40049,52616
40121,52911
40134,52926
40145,52948
40146,52953
40148,52976
40145,52978
40162,52991
40162,52999
40172,53015
40169,53027
40189,53048
40166,53057
40198,53057
40187,53067
40188,53088
40186,53087
40200,53101
40197,53107
40208,53120
40201,53131
40198,53140
40204,53150
40202,53166
40210,53173
40221,53176
40218,53183
40226,53207
40219,53194
40235,53217
40240,53210
40223,53237
40240,53247
40239,53259
40245,53263
40244,53272
40257,53267
40234,53270
40245,53292
40257,53301
40276,53307
40261,53296
40249,53336
40247,53321
40245,53333
40270,53329
40258,53340
40245,53350
40256,53347
40280,53360
40270,53370
40264,53374
40279,53394
40282,53384
40271,53406
40293,53405
40277,53411
40281,53418
40284,53438
40284,53435
40297,53444
40284,53427
40283,53403
40259,53339
40224,53231
40169,53047
40137,52891
40088,52746
40051,52612
40049,52550
40016,52499
40002,52468
40014,52457
40022,52466
40026,52472
40011,52480
40017,52522
40054,52562
40051,52574
40059,52614
40070,52632
40082,52683
40076,52714
40095,52732
40113,52754
40119,52779
40116,52786
40120,52800
40125,52834
40146,52867
40159,52907
40153,52903
40157,52955
40175,52978
40174,52986
40173,52974
40165,52961
40169,52960
40173,52941
40147,52931
40149,52917
40150,52895
40150,52862
40156,52848
40156,52846
40141,52847
40156,52860
40138,52849
40145,52865
40159,52876
40167,52883
40166,52907
40165,52926
40160,52945
40180,52943
40188,52982
40193,52985
40203,53018
40192,53010
40210,53041
40213,53059
40203,53061
40216,53092
40205,53080
40228,53101
40219,53122
40230,53130
40231,53144
40243,53144
40242,53159
40248,53167
40243,53170
40245,53185
40254,53203
40253,53192
40262,53213
40259,53219
40264,53219
40285,53241
40268,53246
40276,53254
40266,53254
40279,53266
40292,53290
40288,53295
40289,53302
40295,53306
40290,53318
40279,53331
40290,53339
40300,53328
40284,53347
40281,53359
40292,53353
40300,53365
40299,53389
40295,53395
40295,53376
40312,53395
40317,53405
40313,53419
40315,53399
40313,53421
40322,53432
40307,53422
40322,53449
40324,53434
40325,53449
40337,53460
40334,53481
40333,53493
40336,53486
40334,53492
40327,53500
40331,53483
40326,53453
40300,53413
40281,53282
40228,53126
40183,52933
40126,52782
40078,52645
40054,52577
40048,52502
40049,52482
40042,52455
40039,52458
40034,52466
40055,52492
40046,52511
40068,52541
40074,52577
40089,52596
40097,52605
40096,52645
40109,52667
40110,52695
40131,52710
40125,52727
40149,52753
40147,52791
40149,52779
40161,52793
40161,52812
40171,52838
40170,52875
40186,52904
40175,52931
40202,52938
40204,52947
40203,52932
40197,52936
40185,52938
40189,52913
40169,52892
40167,52869
40167,52873
40168,52844
40162,52845
40167,52812
40170,52855
40170,52852
40183,52877
40193,52899
40197,52882
40202,52927
40198,52942
40197,52948
40221,52958
40236,52983
40207,53002
40228,53016
40232,53010
40226,53048
40245,53092
40244,53082
40233,53071
40249,53084
40255,53114
40236,53118
40255,53143
40268,53144
40269,53148
40260,53161
40271,53167
40277,53173
40297,53180
40313,53206
40284,53220
40266,53203
40162,52845
40266,53239
40284,53236
40290,53258
40312,53251
40293,53277
40297,53280
40300,53288
40314,53294
40318,53297
40306,53310
40318,53314
40328,53328
40335,53319
40323,53338
40321,53358
40318,53357
40315,53360
40326,53370
40323,53375
40344,53380
40324,53382
40329,53402
40328,53418
40350,53409
40334,53407
40335,53421
40347,53416
40345,53430
40352,53453
40357,53445
40354,53449
40349,53451
40357,53484
40366,53484
40354,53497
40364,53500
40356,53507
40365,53492
40376,53529
40368,53510
40373,53529
40367,53504
40346,53456
40324,53395
40281,53252
40231,53066
40177,52880
40160,52780
40132,52656
40108,52595
40099,52535
40088,52542
40096,52539
40092,52544
40101,52554
40101,52592
40131,52614
40129,52652
40129,52680
40149,52723
40165,52746
40169,52766
40188,52805
40189,52835
40201,52847
40190,52872
40203,52898
40223,52919
40219,52952
40224,52974
40241,53002
40242,53023
40252,53050
40259,53059
40269,53073
40264,53078
40263,53064
40251,53058
40251,53040
40229,53025
40233,52991
40230,52980
40235,52965
40222,52929
40228,52936
40222,52937
40218,52945
40234,52946
40227,52961
40238,52959
40233,52972
40245,52997
40254,53009
40248,53042
40246,53055
40259,53057
40259,53068
40277,53095
40280,53107
40270,53126
40282,53117
40281,53153
40277,53151
40307,53160
40283,53177
40304,53174
40299,53194
40306,53201
40303,53205
40305,53231
40309,53235
40319,53244
40319,53240
40319,53239
40319,53253
40331,53273
40333,53294
40340,53297
40343,53311
40341,53305
40330,53310
40333,53335
40343,53340
40334,53339
40355,53350
40348,53343
40347,53372
40344,53386
40369,53375
40354,53378
40371,53395
40364,53403
40363,53413
40350,53426
40365,53425
40369,53421
40371,53436
40363,53430
40378,53435
40386,53454
40367,53462
40395,53474
40371,53469
40390,53474
40387,53490
40387,53484
40404,53508
40385,53521
40388,53513
40414,53529
40400,53527
40391,53525
40373,53467
40360,53394
40316,53267
40257,53089
40225,52928
40189,52803
40158,52691
40133,52639
40118,52586
40115,52572
40111,52571
40124,52579
40126,52586
40135,52629
40153,52652
40166,52665
40178,52701
40187,52753
40186,52783
40201,52811
40205,52836
40211,52852
40231,52868
40233,52890
40229,52919
40245,52945
40245,52973
40256,52979
40266,53025
40263,53059
40291,53072
40281,53084
40289,53093
40289,53100
40302,53097
40273,53085
40276,53070
40272,53059
40275,53036
40259,53015
40273,53007
40256,52998
40261,52979
40262,52979
40249,52983
40251,52995
40274,52999
40267,53019
40277,53042
40274,53050
40281,53072
40299,53076
40293,53095
40291,53116
40304,53125
40307,53135
40307,53162
40314,53158
40316,53182
40325,53200
40332,53192
40328,53212
40324,53209
40318,53238
40328,53252
40337,53262
40359,53236
40334,53281
40350,53287
40351,53300
40366,53297
40350,53292
40344,53304
40372,53321
40368,53339
40375,53341
40396,53352
40375,53350
40369,53365
40386,53371
40382,53383
40377,53408
40376,53401
40381,53385
40387,53414
40400,53455
40389,53430
40388,53439
40396,53443
40393,53464
40409,53469
40400,53455
40412,53475
40423,53483
40419,53501
40398,53503
40366,53502
40400,53501
40405,53495
40412,53528
40422,53509
40426,53540
40407,53541
40412,53556
40412,53557
40418,53558
40435,53576
40422,53574
40423,53578
40420,53550
40409,53480
40383,53398
40321,53247
40261,53045
40223,52904
40209,52788
40176,52690
40146,52609
40146,52621
40156,52589
40150,52595
40152,52617
40163,52626
40174,52641
40182,52681
40192,52695
40201,52735
40216,52766
40214,52779
40226,52817
40244,52840
40221,52868
40244,52897
40247,52898
40253,52920
40251,52941
40273,52956
40289,52978
40281,53025
40298,53055
40301,53056
40296,53072
40291,53084
40303,53084
40295,53094
40293,53093
40306,53068
40285,53035
40277,53038
40279,53012
40280,52983
40273,52997
40279,52978
40285,52975
40277,52992
40270,52986
40280,52997
40293,53009
40284,53029
40308,53042
40307,53043
40306,53070
40300,53087
40314,53096
40314,53104
40319,53117
40332,53146
40338,53156
40328,53158
40334,53177
40346,53195
40339,53205
40354,53208
40357,53214
40354,53245
40354,53240
40371,53239
40354,53260
40358,53275
40368,53287
40359,53302
40374,53298
40371,53301
40363,53298
40366,53315
40373,53344
40378,53348
40383,53346
40388,53355
40399,53361
40391,53353
40392,53377
40374,53379
40397,53391
40397,53407
40398,53395
40404,53408
40388,53414
40405,53424
40416,53435
40415,53432
40411,53448
40410,53443
40422,53449
40393,53452
40409,53453
40415,53470
40420,53475
40427,53483
40419,53495
40423,53494
40414,53504
40430,53517
40430,53520
40434,53529
40442,53545
40420,53532
40443,53543
40432,53558
40428,53562
40414,53502
40403,53463
40378,53354
40340,53219
40288,53032
40250,52907
40223,52817
40186,52725
40183,52664
40185,52650
40181,52653
40183,52657
40179,52679
40195,52700
40217,52715
40219,52768
40233,52801
40243,52835
40267,52867
40278,52884
40269,52917
40291,52960
40288,52981
40293,52993
40301,53000
40307,53039
40315,53073
40332,53091
40311,53121
40324,53142
40330,53159
40353,53180
40353,53182
40343,53177
40353,53165
40324,53151
40327,53153
40337,53140
40327,53104
40310,53075
40301,53085
40306,53064
40296,53044
40312,53034
40316,53042
40321,53043
40313,53068
40326,53086
40335,53102
40318,53110
40330,53132
40332,53144
40346,53143
40352,53173
40357,53181
40358,53192
40370,53198
40366,53234
40379,53239
40375,53247
40370,53263
40356,53267
40374,53271
40372,53288
40384,53305
40375,53322
40393,53301
40391,53332
40392,53332
40397,53330
40401,53349
40401,53358
40401,53365
40401,53387
40404,53373
40400,53379
40413,53391
40408,53407
40424,53409
40425,53432
40427,53424
40419,53432
40427,53449
40423,53445
40432,53439
40420,53477
40420,53467
40427,53479
40430,53479
40429,53480
40428,53493
40445,53512
40429,53506
40444,53527
40431,53520
40438,53514
40451,53523
40446,53547
40450,53558
40455,53558
40427,53556
40443,53574
40455,53575
40460,53562
40431,53534
40428,53473
40363,53392
40342,53244
40295,53071
40270,52932
40231,52833
40190,52654
40200,52609
40191,52604
40183,52623
40192,52651
40191,52651
40189,52682
40219,52701
40232,52726
40249,52766
40258,52794
40271,52816
40266,52847
40230,52856
40260,52879
40256,52898
40251,52915
40291,52932
40291,52961
40288,52973
40312,52994
40303,53014
40317,53029
40320,53065
40327,53083
40329,53104
40332,53086
40329,53076
40327,53069
40321,53075
40326,53069
40319,53046
40302,53026
40317,52984
40288,52991
40295,52987
40315,52991
40305,53001
40295,53008
40316,53020
40313,53043
40318,53047
40326,53051
40318,53080
40334,53078
40342,53089
40323,53115
40331,53130
40344,53144
40345,53157
40345,53165
40351,53179
40349,53186
40359,53206
40376,53215
40364,53248
40372,53242
40372,53250
40392,53248
40373,53260
40391,53284
40387,53290
40384,53299
40406,53310
40395,53309
40397,53304
40398,53336
40412,53348
40399,53336
40423,53369
40410,53352
40398,53355
40416,53377
40419,53382
40418,53376
40431,53411
40419,53381
40428,53401
40425,53409
40430,53422
40435,53439
40439,53435
40438,53449
40445,53453
40442,53461
40436,53458
40451,53480
40420,53489
40435,53475
40440,53490
40441,53497
40449,53494
40453,53501
40459,53514
40451,53529
40459,53533
40461,53530
40461,53542
40455,53550
40464,53552
40461,53560
40463,53586
40461,53582
40462,53607
40465,53590
40472,53588
40466,53584
40450,53522
40422,53436
40368,53299
40320,53114
40281,52955
40245,52855
40209,52746
40201,52682
40195,52658
40196,52615
40208,52623
40204,52636
40206,52649
40212,52678
40210,52705
40231,52744
40234,52755
40238,52794
40256,52822
40258,52839
40275,52865
40267,52874
40275,52904
40289,52912
40283,52925
40310,52958
40290,52961
40315,52983
40310,53021
40325,53051
40344,53063
40327,53083
40341,53083
40346,53090
40328,53090
40348,53072
40310,53059
40329,53054
40312,53044
40306,53014
40310,53014
40310,52983
40300,52993
40324,52993
40318,52990
40304,52996
40304,52992
40321,53017
40328,53027
40321,53037
40339,53054
40339,53072
40351,53068
40346,53095
40335,53127
40354,53127
40349,53153
40355,53167
40366,53175
40371,53183
40369,53189
40368,53211
40387,53210
40389,53232
40379,53246
40365,53243
40391,53253
40365,53273
40383,53274
40412,53282
40411,53298
40397,53297
40403,53298
40412,53301
40405,53298
40393,53328
40413,53331
40406,53358
40413,53348
40404,53360
40417,53359
40415,53360
40417,53365
40406,53372
40414,53381
40422,53377
40437,53394
40428,53395
40433,53403
40431,53408
40425,53409
40428,53430
40430,53433
40450,53441
40430,53427
40435,53448
40440,53457
40440,53462
40435,53467
40445,53472
40467,53472
40441,53479
40448,53499
40453,53504
40448,53506
40450,53521
40453,53523
40454,53538
40465,53539
40459,53558
40463,53561
40462,53553
40459,53577
40468,53565
40453,53547
40446,53511
40417,53435
40390,53324
40337,53148
40292,52987
40245,52890
40242,52800
40219,52731
40218,52723
40204,52674
40211,52668
40225,52679
40230,52704
40233,52725
40241,52768
40237,52800
40265,52820
40270,52866
40293,52888
40287,52917
40305,52937
40307,52981
40304,52980
40323,53056
40336,53078
40343,53105
40351,53105
40367,53134
40373,53118
40365,53155
40376,53170
40374,53199
40384,53176
40370,53169
40360,53156
40346,53138
40369,53118
40335,53087
40330,53078
40312,53054
40312,53058
40318,53042
40339,53039
40329,53047
40335,53059
40332,53080
40341,53094
40339,53106
40349,53112
40364,53132
40341,53142
40361,53164
40354,53178
40379,53179
40370,53200
40364,53210
40386,53208
40383,53239
40390,53251
40395,53262
40387,53291
40401,53296
40411,53309
40396,53299
40408,53296
40414,53316
40404,53331
40404,53337
40402,53338
40407,53332
40409,53360
40415,53360
40425,53364
40427,53380
40416,53390
40430,53383
40424,53400
40435,53415
40433,53411
40452,53429
40431,53419
40430,53433
40453,53444
40433,53450
40432,53452
40442,53454
40444,53463
40443,53468
40452,53488
40444,53485
40446,53492
40449,53508
40454,53502
40458,53506
40459,53502
40456,53524
40459,53527
40474,53551
40468,53551
40466,53544
40473,53558
40485,53561
40473,53569
40482,53590
40455,53583
40471,53578
40464,53587
40462,53548
40431,53478
40403,53349
40349,53191
40305,53029
40267,52903
40245,52812
40221,52733
40203,52687
40204,52655
40198,52640
40209,52654
40211,52668
40223,52677
40239,52706
40242,52720
40236,52739
40238,52769
40245,52803
40272,52813
40266,52839
40266,52859
40276,52890
40289,52893
40305,52922
40291,52933
40282,52955
40290,52964
40307,52991
40316,53009
40319,53035
40325,53062
40341,53065
40351,53074
40347,53093
40336,53081
40335,53091
40330,53063
40335,53039
40317,53029
40315,53027
40313,52997
40305,52986
40324,52991
40330,53000
40313,53004
40321,53011
40334,53030
40321,53036
40330,53043
40318,53053
40342,53064
40327,53080
40336,53094
40340,53105
40351,53137
40364,53139
40352,53143
40363,53154
40348,53180
40350,53183
40365,53210
40369,53216
40366,53232
40394,53216
40391,53255
40389,53266
40394,53277
40394,53268
40388,53270
40397,53293
40405,53308
40403,53312
40394,53318
40400,53315
40404,53335
40403,53331
40411,53345
40411,53348
40413,53352
40402,53368
40426,53365
40417,53378
40437,53390
40430,53403
40432,53411
40421,53416
40436,53411
40433,53428
40432,53423
40436,53433
40429,53450
40427,53455
40442,53448
40433,53475
40438,53468
40454,53467
40438,53483
40446,53478
40449,53497
40429,53507
40463,53500
40458,53501
40460,53521
40453,53524
40470,53540
40478,53526
40472,53549
40480,53554
40476,53561
40462,53581
40466,53578
40487,53591
40462,53582
40482,53601
40461,53588
40469,53563
40446,53515
40411,53403
40353,53277
40309,53107
40294,52944
40242,52842
40224,52751
40204,52695
40202,52669
40208,52653
40210,52662
40224,52667
40232,52682
40238,52714
40243,52736
40256,52772
40252,52795
40254,52817
40272,52846
40273,52868
40283,52884
40276,52884
40289,52915
40285,52926
40285,52953
40307,52941
40313,53000
40317,53013
40324,53038
40326,53085
40336,53076
40347,53096
40346,53089
40335,53108
40343,53057
40339,53100
40332,53079
40326,53055
40314,53046
40313,53043
40314,53014
40298,53010
40303,52996
40300,52992
40321,53016
40306,53000
40307,53037
40321,53045
40331,53067
40336,53057
40340,53050
40336,53084
40328,53097
40332,53126
40356,53124
40347,53161
40357,53166
40351,53171
40348,53179
40375,53216
40394,53218
40365,53220
40359,53228
40368,53252
40378,53242
40375,53258
40396,53249
40379,53285
40402,53293
40388,53301
40386,53304
40400,53328
40374,53318
40399,53335
40411,53347
40401,53346
40418,53344
40400,53367
40394,53367
40413,53371
40413,53381
40419,53385
40417,53394
40432,53378
40421,53405
40410,53396
40431,53414
40423,53423
40433,53423
40426,53438
40429,53435
40421,53443
40429,53436
40430,53470
40428,53456
40432,53469
40450,53461
40440,53468
40429,53492
40436,53485
40442,53506
40447,53498
40450,53501
40436,53516
40439,53525
40460,53527
40448,53535
40459,53552
40451,53542
40456,53561
40462,53562
40471,53571
40452,53568
40453,53542
40457,53523
40427,53450
40386,53330
40354,53176
40304,53030
40262,52925
40254,52835
40217,52765
40218,52723
40214,52703
40205,52703
40213,52708
40224,52744
40236,52764
40248,52803
40262,52820
40257,52869
40289,52883
40282,52933
40284,52957
40298,52975
40309,53002
40328,53016
40321,53043
40316,53054
40330,53072
40342,53095
40348,53145
40353,53172
40377,53194
40374,53203
40379,53201
40367,53212
40370,53199
40369,53193
40374,53183
40353,53172
40359,53137
40334,53131
40336,53103
40334,53105
40330,53088
40329,53099
40342,53081
40327,53092
40352,53103
40350,53100
40334,53132
40351,53136
40360,53159
40338,53188
40362,53178
40366,53197
40377,53202
40364,53218
40388,53234
40380,53259
40389,53266
40391,53277
40391,53272
40390,53284
40397,53300
40387,53317
40395,53340
40393,53327
40414,53347
40404,53343
40405,53360
40397,53372
40418,53372
40410,53393
40407,53413
40423,53399
40411,53388
40414,53415
40428,53425
40415,53430
40422,53424
40415,53436
40429,53439
40436,53460
40440,53479
40437,53469
40434,53462
40432,53476
40444,53476
40438,53490
40436,53500
40435,53504
40443,53505
40445,53525
40451,53527
40443,53527
40447,53550
40440,53533
40428,53552
40465,53550
40448,53547
40467,53576
40437,53572
40467,53587
40458,53584
40466,53597
40463,53606
40469,53611
40461,53619
40468,53620
40470,53607
40440,53558
40430,53514
40408,53405
40363,53259
40309,53077
40283,52943
40231,52890
40232,52772
40210,52737
40211,52722
40212,52687
40225,52700
40219,52711
40229,52727
40230,52753
40253,52770
40255,52804
40257,52821
40270,52860
40268,52871
40277,52888
40274,52928
40294,52951
40292,52939
40288,52980
40289,52979
40279,52996
40309,53027
40316,53039
40319,53064
40332,53105
40338,53124
40348,53142
40339,53135
40345,53157
40329,53146
40344,53150
40339,53110
40330,53121
40320,53086
40315,53081
40312,53070
40320,53067
40310,53054
40320,53058
40318,53080
40327,53056
40318,53077
40321,53090
40327,53097
40331,53102
40325,53125
40345,53134
40338,53157
40348,53165
40346,53181
40350,53191
40360,53219
40370,53219
40359,53230
40375,53252
40375,53260
40369,53258
40374,53266
40395,53268
40387,53299
40378,53304
40393,53315
40391,53330
40406,53341
40380,53343
40400,53351
40403,53381
40400,53373
40407,53384
40398,53395
40394,53407
40415,53384
40416,53378
40426,53406
40404,53418
40432,53419
40409,53444
40416,53445
40428,53466
40411,53472
40418,53474
40441,53476
40441,53495
40422,53490
40400,53480
40428,53502
40442,53496
40442,53514
40431,53505
40432,53540
40447,53524
40434,53542
40445,53546
40443,53537
40437,53562
40465,53550
40456,53562
40458,53583
40445,53572
40452,53582
40462,53610
40458,53594
40462,53617
40449,53613
40445,53625
40468,53649
40467,53642
40462,53639
40446,53627
40446,53592
40439,53536
40406,53431
40352,53279
40311,53120
40270,52987
40246,52887
40231,52813
40218,52765
40205,52738
40215,52724
40215,52723
40223,52746
40234,52766
40233,52798
40239,52823
40255,52845
40261,52878
40271,52899
40269,52937
40295,52963
40285,52963
40290,52998
40301,53015
40310,53028
40306,53043
40293,53059
40333,53082
40332,53087
40342,53113
40347,53145
40332,53188
40360,53184
40345,53198
40345,53198
40361,53206
40333,53178
40335,53178
40342,53145
40325,53132
40333,53117
40330,53104
40329,53090
40319,53104
40322,53089
40321,53122
40316,53110
40321,53119
40336,53116
40336,53127
40346,53155
40345,53159
40344,53187
40342,53196
40339,53203
40357,53218
40340,53240
40360,53239
40356,53249
40367,53261
40363,53272
40377,53292
40380,53292
40381,53310
40377,53307
40394,53341
40400,53339
40389,53343
40402,53360
40389,53361
40403,53366
40407,53388
40398,53393
40422,53397
40408,53404
40415,53421
40408,53411
40418,53438
40404,53427
40420,53439
40412,53433
40420,53461
40412,53454
40416,53460
40424,53482
40430,53472
40432,53476
40427,53499
40421,53497
40419,53500
40417,53502
40423,53511
40432,53510
40430,53528
40427,53527
40434,53526
40441,53547
40425,53545
40424,53549
40445,53558
40446,53569
40439,53573
40431,53585
40441,53581
40446,53587
40448,53599
40453,53605
40455,53615
40456,53630
40453,53614
40477,53647
40453,53651
40455,53664
40459,53647
40449,53632
40432,53603
40422,53540
40384,53426
40348,53288
40299,53152
40275,53002
40238,52937
40232,52875
40218,52825
40229,52809
40238,52804
40221,52818
40231,52842
40250,52871
40253,52901
40276,52934
40279,52962
40298,53006
40289,53011
40318,53041
40309,53076
40330,53110
40326,53119
40342,53142
40341,53180
40351,53184
40339,53218
40354,53240
40369,53285
40383,53290
40375,53309
40375,53322
40375,53317
40372,53320
40385,53315
40375,53299
40365,53283
40364,53289
40366,53244
40368,53228
40350,53223
40343,53219
40347,53206
40345,53210
40344,53196
40352,53227
40355,53233
40360,53260
40363,53273
40338,53265
40377,53274
40359,53293
40381,53308
40372,53321
40372,53341
40383,53346
40389,53363
40380,53378
40397,53375
40401,53390
40395,53406
40402,53396
40409,53415
40409,53440
40405,53452
40407,53452
40424,53453
40425,53463
40415,53472
40420,53477
40424,53486
40429,53486
40416,53499
40414,53507
40422,53512
40425,53507
40432,53524
40438,53564
40415,53538
40430,53539
40430,53552
40442,53566
40441,53552
40435,53576
40435,53578
40449,53586
40420,53602
40439,53608
40452,53607
40439,53611
40451,53612
40439,53618
40460,53633
40452,53638
40451,53639
40466,53659
40452,53662
40460,53665
40454,53646
40462,53653
40463,53667
40456,53694
40475,53683
40462,53689
40472,53718
40466,53726
40470,53716
40478,53738
40493,53725
40493,53719
40439,53683
40448,53608
40391,53502
40347,53346
40305,53187
40279,53056
40255,52987
40247,52908
40233,52867
40225,52846
40234,52830
40229,52831
40242,52848
40247,52870
40251,52892
40260,52917
40276,52954
40282,53002
40285,53015
40300,53048
40310,53064
40302,53092
40321,53103
40314,53113
40316,53151
40320,53144
40319,53154
40323,53166
40346,53217
40341,53229
40362,53267
40355,53259
40356,53277
40369,53299
40369,53313
40349,53301
40353,53290
40366,53266
40346,53257
40339,53238
40354,53231
40348,53223
40338,53213
40335,53221
40337,53227
40336,53224
40339,53220
40354,53234
40336,53234
40345,53251
40356,53274
40354,53273
40357,53296
40363,53294
40372,53321
40373,53329
40360,53327
40367,53358
40375,53375
40400,53371
40394,53395
40390,53408
40400,53438
40397,53438
40396,53440
40414,53449
40398,53447
40395,53475
40408,53468
40402,53475
40406,53483
40404,53499
40409,53510
40414,53515
40427,53520
40409,53518
40420,53536
40434,53540
40421,53532
40418,53547
40430,53566
40422,53565
40429,53575
40432,53557
40416,53574
40437,53590
40433,53607
40440,53605
40446,53617
40442,53620
40444,53633
40454,53633
40444,53633
40442,53657
40443,53640
40451,53665
40447,53667
40448,53666
40453,53694
40444,53674
40452,53679
40448,53686
40439,53697
40463,53688
40454,53703
40459,53723
40455,53710
40469,53718
40460,53735
40466,53740
40468,53741
40457,53750
40473,53754
40476,53790
40466,53790
40455,53766
40462,53745
40440,53694
40426,53604
40387,53483
40336,53319
40305,53170
40274,53087
40262,53006
40238,52969
40240,52923
40237,52902
40245,52902
40251,52925
40255,52934
40260,52952
40273,53010
40293,53048
40290,53065
40298,53101
40310,53130
40318,53171
40327,53177
40319,53205
40332,53229
40330,53236
40335,53253
40344,53257
40354,53286
40359,53317
40369,53330
40378,53361
40377,53371
40382,53400
40377,53384
40364,53398
40374,53381
40378,53365
40382,53369
40358,53347
40377,53324
40356,53327
40353,53318
40352,53305
40336,53291
40358,53288
40342,53317
40350,53304
40366,53301
40351,53312
40357,53336
40354,53338
40359,53354
40373,53365
40364,53375
40371,53405
40396,53401
40388,53413
40373,53436
40393,53450
40386,53463
40391,53464
40416,53454
40400,53470
40398,53495
40409,53475
40385,53503
40405,53514
40402,53517
40407,53529
40404,53530
40419,53545
40419,53541
40404,53559
40414,53549
40414,53558
40415,53582
40418,53576
40421,53593
40413,53585
40419,53601
40438,53620
40439,53610
40441,53620
40436,53638
40421,53634
40428,53645
40422,53647
40429,53659
40439,53673
40446,53670
40436,53674
40445,53673
40448,53696
40450,53694
40440,53684
40449,53693
40448,53703
40438,53722
40438,53710
40442,53720
40462,53731
40461,53738
40450,53737
40451,53731
40450,53765
40451,53769
40478,53728
40447,53786
40459,53781
40458,53774
40463,53779
40458,53799
40455,53760
40425,53711
40407,53634
40391,53515
40356,53371
40300,53242
40279,53121
40242,53067
40259,53031
40241,52973
40232,52968
40258,52968
40254,53008
40271,53049
40273,53103
40287,53117
40306,53153
40317,53172
40323,53212
40338,53248
40354,53259
40358,53277
40324,53304
40336,53346
40337,53350
40337,53382
40356,53392
40379,53419
40386,53457
40389,53483
40401,53476
40388,53464
40394,53477
40382,53474
40380,53481
40387,53458
40366,53441
40380,53437
40367,53432
40366,53417
40360,53395
40367,53395
40350,53384
40352,53395
40365,53398
40358,53398
40373,53413
40375,53415
40373,53445
40387,53460
40375,53464
40382,53476
40380,53476
40388,53498
40402,53495
40392,53506
40396,53531
40386,53541
40398,53537
40410,53554
40406,53572
40419,53577
40411,53584
40410,53592
40417,53599
40417,53611
40421,53612
40424,53602
40429,53624
40426,53652
40413,53634
40434,53647
40426,53654
40440,53666
40431,53663
40416,53671
40424,53675
40440,53679
40442,53688
40432,53707
40444,53700
40421,53718
40440,53725
40445,53733
40435,53731
40441,53757
40437,53770
40444,53737
40452,53769
40455,53777
40451,53771
40454,53783
40453,53757
40442,53783
40444,53792
40441,53784
40449,53805
40450,53819
40461,53808
40461,53825
40469,53838
40463,53815
40467,53845
40468,53844
40471,53852
40445,53830
40456,53827
40437,53786
40423,53686
40388,53565
40354,53423
40302,53274
40279,53162
40253,53087
40243,53037
40226,52993
40233,52987
40231,53002
40233,52994
40259,53014
40237,53036
40256,53074
40280,53100
40296,53121
40302,53151
40288,53178
40295,53201
40311,53217
40310,53233
40327,53225
40317,53287
40319,53270
40327,53300
40320,53317
40347,53344
40340,53381
40352,53383
40360,53402
40365,53416
40365,53434
40371,53436
40377,53444
40357,53432
40372,53417
40354,53427
40359,53401
40353,53384
40337,53385
40341,53377
40339,53369
40353,53367
40340,53368
40331,53367
40331,53381
40340,53365
40349,53399
40352,53400
40348,53421
40354,53435
40354,53435
40367,53464
40369,53459
40349,53467
40386,53489
40374,53488
40378,53491
40367,53521
40377,53534
40380,53536
40388,53565
40393,53559
40388,53568
40402,53570
40385,53580
40408,53605
40404,53595
40409,53600
40406,53636
40399,53617
40409,53635
40407,53627
40413,53645
40412,53653
40413,53673
40416,53673
40413,53673
40434,53674
40416,53680
40429,53692
40423,53720
40419,53706
40420,53699
40418,53722
40405,53738
40436,53725
40424,53758
40424,53743
40429,53749
40428,53763
40444,53767
40419,53783
40436,53780
40429,53775
40437,53802
40433,53788
40431,53791
40436,53802
40427,53797
40441,53805
40435,53813
40438,53832
40431,53835
40449,53833
40434,53846
40454,53840
40440,53856
40464,53846
40451,53886
40445,53885
40450,53887
40453,53864
40440,53826
40420,53780
40393,53685
40363,53560
40338,53432
40290,53291
40266,53176
40237,53116
40239,53057
40228,53043
40229,53020
40229,53053
40239,53044
40242,53075
40251,53105
40267,53140
40301,53175
40295,53198
40285,53260
40287,53276
40305,53290
40285,53301
40313,53315
40318,53329
40322,53359
40330,53380
40338,53381
40337,53411
40347,53440
40370,53463
40367,53486
40375,53483
40375,53495
40368,53502
40365,53501
40352,53514
40371,53531
40354,53508
40345,53437
40337,53402
40341,53429
40354,53405
40332,53422
40330,53427
40329,53425
40338,53437
40348,53444
40346,53440
40371,53449
40378,53449
40376,53475
40333,53480
40350,53499
40347,53514
40344,53534
40377,53537
40386,53527
40386,53549
40375,53559
40374,53578
40388,53585
40380,53579
40378,53589
40382,53609
40393,53622
40403,53617
40380,53626
40388,53627
40377,53661
40393,53662
40394,53667
40392,53675
40399,53672
40392,53683
40400,53688
40400,53684
40402,53709
40410,53713
40402,53715
40413,53705
40409,53726
40393,53728
40414,53741
40418,53746
40413,53732
40414,53756
40418,53751
40411,53769
40426,53770
40418,53768
40414,53791
40404,53793
40423,53801
40419,53797
40412,53801
40422,53817
40429,53799
40417,53819
40432,53816
40415,53816
40424,53843
40438,53838
40442,53849
40429,53864
40439,53857
40428,53883
40442,53874
40437,53885
40434,53850
40414,53847
40404,53790
40370,53694
40361,53577
40322,53445
40286,53306
40244,53202
40242,53162
40242,53108
40222,53089
40216,53071
40234,53084
40228,53106
40246,53139
40241,53154
40258,53190
40264,53225
40287,53254
40292,53294
40304,53313
40318,53342
40303,53355
40319,53380
40325,53404
40336,53396
40342,53436
40329,53461
40345,53484
40362,53506
40356,53531
40365,53544
40356,53565
40361,53575
40370,53568
40355,53556
40357,53542
40362,53537
40354,53533
40344,53509
40343,53501
40348,53490
40352,53486
40358,53481
40342,53474
40329,53473
40341,53490
40339,53499
40358,53486
40349,53521
40357,53516
40359,53524
40350,53541
40358,53560
40359,53563
40366,53580
40358,53578
40365,53592
40376,53602
40375,53616
40382,53633
40383,53640
40383,53646
40375,53663
40380,53672
40386,53681
40375,53680
40393,53695
40390,53693
40393,53697
40400,53709
40407,53718
40393,53721
40409,53736
40415,53734
40414,53754
40404,53751
40405,53746
40395,53756
40416,53777
40411,53776
40410,53789
40408,53801
40412,53795
40410,53809
40406,53812
40408,53822
40412,53820
40419,53817
40403,53831
40424,53845
40431,53824
40420,53847
40429,53845
40419,53856
40431,53876
40434,53865
40416,53873
40422,53874
40421,53859
40421,53883
40433,53896
40435,53919
40440,53910
40434,53915
40439,53922
40442,53928
40444,53929
40442,53927
40435,53886
40406,53828
40384,53738
40354,53621
40317,53461
40263,53335
40246,53215
40244,53158
40225,53114
40230,53092
40208,53085
40216,53084
40213,53079
40233,53116
40229,53138
40234,53163
40241,53193
40254,53207
40266,53255
40260,53273
40278,53275
40282,53329
40277,53312
40282,53343
40286,53353
40302,53377
40293,53382
40306,53386
40322,53419
40328,53475
40325,53462
40323,53493
40336,53511
40336,53513
40353,53505
40319,53531
40339,53515
40347,53500
40331,53498
40328,53495
40324,53481
40329,53470
40303,53460
40314,53478
40307,53452
40327,53454
40302,53472
40320,53471
40320,53472
40328,53492
40319,53504
40340,53522
40322,53511
40339,53526
40342,53549
40336,53558
40344,53553
40341,53573
40352,53577
40355,53585
40364,53612
40362,53618
40362,53620
40355,53622
40370,53658
40374,53649
40332,53654
40370,53678
40375,53696
40365,53715
40371,53695
40360,53659
40383,53707
40386,53726
40375,53709
40377,53724
40376,53738
40386,53748
40374,53747
40403,53766
40403,53777
40425,53775
40397,53781
40361,53794
40322,53511
40394,53796
40393,53815
40398,53809
40394,53823
40397,53836
40401,53835
40402,53838
40405,53825
40393,53844
40406,53861
40394,53854
40400,53860
40408,53874
40401,53876
40412,53882
40402,53892
40416,53889
40408,53889
40415,53883
40417,53900
40404,53907
40422,53917
40404,53928
40408,53942
40422,53937
40425,53939
40416,53939
40413,53947
40416,53931
40415,53898
40394,53870
40364,53777
40340,53649
40307,53521
40269,53382
40230,53275
40223,53209
40196,53173
40215,53160
40216,53135
40200,53143
40207,53148
40231,53167
40219,53199
40252,53245
40236,53266
40277,53294
40260,53328
40278,53347
40278,53384
40303,53395
40294,53409
40288,53440
40317,53436
40300,53460
40320,53485
40318,53519
40324,53531
40335,53557
40340,53572
40341,53597
40341,53577
40346,53610
40340,53589
40333,53581
40327,53580
40332,53566
40316,53545
40324,53537
40314,53527
40309,53513
40322,53506
40312,53516
40313,53516
40322,53508
40317,53519
40319,53540
40312,53525
40341,53543
40342,53553
40324,53567
40322,53565
40325,53582
40332,53598
40339,53603
40337,53617
40341,53614
40344,53638
40331,53642
40362,53656
40351,53663
40351,53693
40351,53685
40360,53689
40349,53696
40360,53703
40369,53702
40372,53724
40357,53714
40377,53725
40360,53740
40365,53743
40365,53753
40373,53768
40362,53772
40386,53769
40390,53781
40380,53776
40378,53779
40375,53815
40402,53819
40372,53814
40386,53827
40386,53817
40387,53826
40395,53848
40387,53834
40373,53861
40388,53843
40389,53862
40398,53850
40402,53866
40394,53868
40391,53874
40403,53876
40415,53898
40396,53890
40395,53909
40418,53916
40384,53905
40405,53928
40393,53930
40398,53925
40405,53935
40409,53934
40399,53914
40386,53879
40385,53815
40345,53718
40306,53595
40268,53453
40232,53324
40218,53238
40189,53189
40196,53155
40185,53138
40180,53123
40180,53150
40223,53189
40223,53205
40225,53210
40233,53265
40227,53275
40264,53307
40247,53333
40265,53356
40275,53370
40283,53398
40281,53415
40293,53442
40273,53459
40287,53461
40299,53505
40300,53511
40304,53552
40309,53561
40312,53574
40328,53592
40323,53589
40337,53594
40315,53593
40323,53588
40317,53573
40310,53543
40296,53545
40313,53549
40302,53532
40305,53529
40297,53514
40301,53530
40301,53504
40297,53519
40304,53524
40303,53544
40315,53544
40313,53552
40297,53569
40307,53582
40323,53594
40325,53606
40332,53609
40324,53639
40333,53631
40336,53660
40341,53636
40340,53674
40343,53675
40333,53690
40349,53690
40352,53714
40344,53701
40345,53707
40353,53726
40349,53737
40373,53746
40362,53743
40361,53747
40358,53753
40361,53761
40366,53783
40356,53770
40365,53788
40368,53798
40376,53802
40376,53800
40370,53819
40364,53803
40368,53830
40376,53819
40368,53841
40376,53856
40381,53840
40373,53863
40386,53874
40388,53850
40373,53872
40390,53875
40390,53877
40371,53879
40371,53888
40384,53915
40361,53945
40390,53892
40387,53870
40380,53900
40382,53934
40389,53938
40390,53940
40401,53969
40395,53954
40391,53960
40407,53965
40416,53952
40395,53923
40373,53877
40332,53779
40291,53648
40265,53524
40229,53370
40214,53274
40181,53206
40191,53148
40178,53122
40172,53095
40172,53107
40180,53132
40195,53158
40204,53172
40194,53192
40206,53212
40214,53247
40218,53273
40230,53288
40229,53319
40239,53331
40253,53340
40259,53354
40263,53377
40261,53397
40260,53395
40261,53421
40277,53450
40280,53469
40283,53484
40291,53520
40289,53548
40298,53531
40294,53533
40292,53525
40307,53534
40267,53517
40284,53514
40286,53494
40279,53480
40274,53480
40266,53461
40278,53474
40255,53474
40275,53480
40269,53480
40282,53473
40280,53493
40275,53494
40287,53503
40267,53526
40285,53541
40305,53541
40293,53552
40301,53556
40291,53573
40304,53582
40301,53609
40309,53599
40310,53608
40322,53624
40306,53637
40305,53652
40318,53666
40323,53668
40312,53669
40331,53689
40320,53690
40337,53692
40334,53694
40325,53706
40334,53716
40334,53736
40336,53732
40337,53741
40344,53739
40340,53748
40343,53758
40339,53784
40347,53781
40355,53772
40338,53803
40356,53784
40366,53795
40358,53797
40356,53803
40344,53809
40352,53821
40358,53841
40352,53832
40358,53841
40370,53856
40357,53862
40372,53866
40362,53873
40361,53875
40353,53898
40365,53893
40368,53890
40374,53888
40364,53909
40368,53902
40368,53898
40370,53918
40368,53908
40369,53922
40371,53928
40369,53955
40370,53930
40363,53941
40368,53950
40378,53953
40386,53975
40370,53977
40388,53967
40380,53978
40380,53983
40384,53978
40381,53950
40365,53912
40345,53842
40305,53709
40281,53591
40234,53433
40202,53338
40191,53246
40177,53197
40158,53179
40160,53156
40172,53145
40175,53188
40187,53185
40190,53206
40195,53251
40206,53287
40226,53295
40209,53347
40216,53352
40242,53387
40243,53405
40248,53434
40249,53450
40245,53467
40271,53475
40279,53495
40276,53502
40272,53533
40278,53561
40285,53574
40278,53594
40302,53609
40294,53588
40298,53605
40293,53600
40269,53604
40283,53589
40268,53576
40283,53560
40280,53533
40276,53514
40266,53527
40262,53520
40264,53508
40282,53513
40263,53516
40265,53527
40273,53537
40276,53549
40282,53579
40280,53568
40286,53579
40284,53596
40291,53593
40283,53619
40298,53643
40290,53636
40295,53637
40304,53654
40306,53657
40301,53658
40310,53676
40308,53679
40314,53682
40323,53701
40311,53700
40308,53739
40313,53719
40317,53721
40323,53741
40327,53750
40326,53744
40319,53762
40338,53766
40328,53774
40328,53759
40330,53788
40331,53774
40334,53785
40328,53804
40347,53803
40339,53810
40352,53815
40325,53822
40341,53831
40342,53843
40343,53839
40339,53851
40353,53862
40347,53884
40347,53854
40335,53871
40348,53878
40340,53871
40351,53885
40342,53880
40344,53887
40352,53891
40354,53924
40360,53910
40359,53920
40358,53928
40347,53922
40365,53915
40355,53937
40363,53949
40353,53961
40345,53951
40364,53954
40377,53979
40341,53958
40349,53923
40323,53869
40307,53798
40272,53664
40238,53543
40202,53408
40188,53336
40166,53188
40166,53148
40160,53154
40153,53184
40167,53190
40172,53215
40182,53255
40187,53284
40203,53315
40209,53342
40238,53381
40244,53406
40238,53423
40206,53436
40242,53457
40226,53474
40243,53512
40266,53519
40255,53530
40277,53556
40273,53584
40287,53595
40287,53637
40294,53643
40293,53643
40285,53632
40304,53643
40272,53630
40284,53601
40275,53603
40252,53594
40266,53580
40275,53568
40276,53568
40248,53537
40270,53555
40268,53552
40272,53556
40266,53561
40264,53590
40264,53594
40267,53603
40285,53610
40283,53609
40277,53636
40288,53646
40285,53643
40296,53661
40285,53667
40313,53685
40302,53688
40297,53701
40298,53705
40305,53712
40316,53725
40315,53735
40334,53741
40309,53745
40299,53760
40321,53774
40307,53767
40320,53778
40321,53783
40326,53798
40323,53797
40326,53805
40324,53813
40327,53817
40320,53836
40321,53822
40343,53846
40325,53853
40337,53859
40332,53859
40331,53877
40341,53871
40327,53880
40336,53882
40336,53894
40340,53892
40353,53901
40331,53899
40340,53906
40333,53912
40336,53906
40324,53910
40345,53919
40329,53920
40355,53935
40339,53946
40356,53963
40345,53939
40346,53973
40353,53973
40343,53985
40354,53971
40347,53978
40362,53983
40356,53995
40346,53995
40349,53984
40345,53935
40314,53864
40292,53773
40257,53634
40216,53491
40190,53354
40166,53269
40168,53224
40155,53151
40127,53143
40120,53141
40130,53135
40148,53169
40141,53176
40157,53200
40166,53240
40184,53252
40170,53290
40179,53320
40193,53331
40204,53359
40194,53362
40209,53393
40194,53406
40202,53425
40214,53412
40222,53427
40219,53447
40233,53488
40230,53510
40246,53527
40266,53549
40252,53559
40260,53565
40260,53585
40253,53569
40245,53566
40238,53539
40248,53544
40233,53530
40218,53521
40238,53504
40237,53511
40233,53499
40227,53506
40228,53505
40230,53503
40249,53533
40220,53511
40246,53540
40247,53539
40245,53547
40250,53557
40239,53577
40249,53602
40268,53587
40266,53612
40267,53616
40268,53623
40264,53641
40265,53649
40255,53671
40271,53676
40294,53691
40262,53685
40283,53691
40275,53691
40290,53717
40281,53724
40287,53720
40301,53723
40283,53716
40287,53766
40307,53754
40293,53762
40303,53764
40304,53772
40298,53787
40312,53795
40301,53807
40307,53801
40322,53808
40296,53823
40312,53815
40306,53825
40300,53851
40323,53851
40313,53863
40308,53858
40312,53864
40338,53871
40310,53890
40324,53880
40316,53885
40316,53894
40320,53895
40326,53913
40320,53900
40329,53924
40327,53926
40320,53933
40334,53932
40330,53931
40324,53942
40319,53949
40326,53941
40328,53942
40351,53967
40352,53981
40337,53974
40340,53983
40331,53987
40335,53985
40332,53992
40334,54007
40334,53990
40305,53936
40304,53887
40280,53783
40251,53659
40212,53496
40154,53391
40153,53289
40130,53224
40125,53196
40121,53166
40114,53164
40131,53171
40127,53183
40144,53208
40133,53223
40159,53263
40155,53298
40179,53323
40181,53343
40174,53374
40194,53404
40194,53422
40200,53423
40228,53452
40206,53452
40207,53475
40216,53496
40225,53516
40240,53585
40246,53604
40245,53603
40255,53574
40255,53600
40249,53588
40239,53597
40228,53597
40238,53572
40226,53576
40251,53557
40227,53549
40253,53550
40252,53534
40208,53533
40205,53530
40191,53544
40209,53534
40223,53546
40234,53551
40228,53565
40227,53570
40260,53587
40244,53598
40234,53600
40239,53606
40237,53619
40248,53636
40239,53662
40266,53670
40255,53651
40259,53655
40256,53674
40271,53690
40251,53705
40276,53699
40265,53725
40265,53712
40275,53732
40282,53738
40272,53738
40294,53751
40280,53759
40275,53770
40284,53776
40286,53781
40285,53784
40280,53792
40271,53807
40291,53792
40289,53805
40282,53815
40285,53828
40292,53818
40289,53840
40293,53856
40297,53836
40316,53849
40297,53859
40298,53861
40294,53855
40298,53882
40298,53883
40296,53886
40314,53896
40303,53902
40306,53888
40294,53903
40303,53900
40306,53923
40293,53922
40314,53933
40305,53921
40310,53948
40308,53942
40334,53956
40321,53966
40325,53954
40333,53968
40330,53978
40318,53988
40321,53974
40301,53995
40324,53984
40298,53947
40296,53885
40267,53789
40241,53681
40197,53544
40162,53429
40148,53315
40126,53249
40117,53233
40113,53201
40098,53190
40118,53216
40121,53212
40147,53244
40140,53277
40163,53304
40171,53338
40156,53362
40182,53407
40169,53433
40211,53446
40189,53479
40195,53479
40209,53503
40203,53539
40220,53544
40219,53584
40234,53600
40236,53610
40234,53636
40242,53652
40256,53658
40243,53681
40253,53671
40243,53660
40258,53664
40231,53641
40243,53614
40241,53618
40223,53594
40214,53584
40244,53578
40223,53592
40227,53568
40228,53577
40220,53587
40223,53592
40237,53614
40228,53624
40251,53626
40243,53627
40252,53649
40234,53654
40252,53668
40254,53687
40244,53682
40258,53691
40252,53713
40266,53725
40269,53715
40273,53745
40261,53744
40259,53753
40262,53758
40273,53780
40267,53773
40273,53790
40268,53792
40278,53794
40282,53793
40280,53824
40289,53830
40279,53821
40290,53812
40282,53842
40281,53853
40282,53849
40302,53848
40289,53865
40305,53875
40301,53863
40282,53883
40278,53882
40288,53905
40302,53895
40299,53901
40288,53932
40307,53920
40281,53923
40297,53924
40305,53927
40299,53928
40295,53928
40299,53938
40299,53949
40308,53962
40302,53961
40316,53962
40316,53967
40309,53972
40307,53987
40313,53996
40313,54013
40298,54006
40320,53997
40305,53975
40297,53935
40268,53868
40241,53744
40224,53607
40166,53464
40128,53345
40107,53255
40089,53220
40108,53185
40091,53163
40090,53158
40074,53172
40093,53180
40106,53208
40127,53248
40122,53259
40128,53293
40126,53318
40142,53334
40166,53367
40164,53397
40154,53400
40149,53404
40179,53433
40180,53451
40178,53456
40173,53475
40193,53510
40203,53504
40202,53551
40201,53561
40217,53582
40217,53608
40211,53599
40221,53603
40210,53595
40221,53576
40190,53575
40197,53561
40201,53553
40202,53575
40197,53541
40192,53532
40201,53534
40203,53537
40193,53521
40195,53554
40212,53549
40198,53547
40208,53576
40210,53577
40213,53586
40219,53601
40209,53617
40223,53639
40229,53635
40214,53640
40219,53661
40225,53676
40223,53697
40228,53668
40234,53683
40245,53695
40257,53731
40255,53735
40234,53736
40257,53744
40244,53746
40244,53762
40258,53768
40282,53771
40293,53770
40252,53764
40232,53781
40266,53810
40235,53786
40252,53813
40272,53823
40262,53834
40273,53836
40263,53850
40262,53860
40277,53842
40267,53862
40268,53875
40267,53874
40279,53892
40284,53886
40272,53866
40280,53902
40268,53900
40271,53899
40277,53914
40266,53923
40293,53928
40285,53934
40277,53935
40282,53934
40285,53953
40286,53946
40284,53958
40278,53947
40282,53967
40282,53949
40271,53971
40302,53990
40299,53984
40305,53994
40297,53990
40288,54018
40304,54020
40296,54002
40295,54017
40300,53998
40279,53972
40264,53889
40251,53817
40204,53682
40166,53540
40117,53386
40106,53298
40091,53235
40089,53201
40095,53176
40080,53191
40083,53181
40087,53186
40095,53201
40097,53243
40103,53253
40108,53293
40122,53314
40140,53348
40133,53372
40147,53391
40148,53410
40157,53413
40161,53441
40166,53452
40150,53473
40180,53480
40165,53502
40175,53518
40202,53576
40199,53564
40191,53585
40205,53603
40200,53599
40181,53598
40190,53615
40191,53589
40197,53599
40206,53561
40196,53569
40190,53543
40177,53553
40180,53539
40181,53524
40176,53535
40177,53538
40178,53525
40170,53542
40182,53559
40190,53564
40189,53580
40202,53581
40194,53592
40196,53609
40197,53615
40195,53641
40208,53648
40219,53650
40207,53654
40208,53667
40213,53686
40214,53690
40214,53678
40217,53695
40211,53708
40228,53725
40215,53720
40226,53729
40240,53733
40223,53741
40222,53761
40235,53768
40230,53765
40236,53771
40233,53780
40232,53793
40241,53805
40244,53800
40259,53814
40240,53809
40248,53826
40252,53825
40248,53829
40255,53865
40249,53845
40239,53847
40250,53855
40255,53866
40258,53875
40249,53863
40253,53871
40254,53885
40245,53891
40256,53894
40262,53889
40260,53906
40272,53897
40274,53920
40273,53920
40265,53933
40264,53917
40263,53936
40262,53940
40273,53949
40286,53943
40258,53946
40268,53963
40261,53963
40260,53972
40272,53976
40277,53991
40280,53996
40262,54005
40282,53986
40260,53972
40257,53946
40236,53881
40206,53773
40179,53650
40135,53519
40116,53397
40089,53298
40064,53263
40064,53227
40080,53211
40077,53197
40081,53219
40090,53232
40103,53278
40116,53308
40113,53324
40118,53359
40124,53390
40141,53421
40143,53444
40161,53478
40151,53493
40161,53514
40169,53532
40184,53544
40177,53529
40176,53588
40190,53614
40213,53625
40196,53659
40199,53674
40208,53669
40194,53671
40206,53671
40201,53670
40187,53655
40187,53641
40183,53622
40187,53605
40189,53601
40172,53583
40174,53588
40165,53588
40173,53580
40177,53584
40176,53581
40177,53584
40193,53598
40176,53627
40187,53620
40193,53632
40185,53625
40188,53652
40201,53665
40198,53687
40206,53689
40202,53706
40202,53707
40213,53722
40228,53739
40223,53741
40223,53731
40227,53751
40231,53755
40211,53762
40233,53767
40221,53790
40231,53802
40237,53788
40241,53801
40232,53815
40243,53819
40226,53818
40227,53826
40243,53840
40239,53832
40210,53840
40247,53850
40245,53888
40222,53884
40237,53869
40252,53853
40251,53867
40241,53887
40245,53909
40254,53895
40254,53914
40254,53914
40256,53921
40262,53925
40241,53923
40249,53931
40222,53936
40223,53731
40261,53945
40262,53944
40281,53961
40251,53960
40267,53981
40278,53985
40267,53994
40269,53987
40260,54000
40255,54000
40258,53976
40242,53937
40214,53865
40212,53764
40166,53632
40119,53488
40103,53361
40077,53275
40065,53225
40076,53199
40056,53157
40060,53171
40055,53174
40068,53205
40071,53205
40077,53239
40094,53269
40108,53296
40114,53318
40100,53350
40122,53366
40104,53376
40127,53402
40113,53412
40113,53429
40129,53439
40129,53464
40135,53457
40145,53498
40171,53510
40162,53544
40170,53575
40178,53569
40167,53596
40161,53593
40160,53607
40171,53589
40165,53594
40165,53580
40166,53557
40155,53544
40144,53536
40144,53529
40163,53521
40156,53533
40145,53536
40139,53514
40155,53520
40149,53563
40134,53560
40154,53559
40156,53557
40141,53584
40173,53599
40166,53593
40175,53615
40174,53633
40173,53645
40176,53640
40196,53650
40182,53672
40173,53669
40191,53687
40179,53685
40188,53702
40192,53719
40192,53700
40207,53735
40220,53729
40210,53740
40208,53756
40214,53758
40209,53767
40206,53769
40197,53800
40211,53779
40234,53945
40252,53942
40241,53949
40242,53933
40231,53954
40233,53972
40250,53971
40247,53980
40253,54002
40257,53998
40236,53996
40251,54011
40251,54011
40258,54012
40240,54004
40233,53983
40233,53932
40212,53846
40171,53736
40141,53602
40104,53417
40065,53325
40059,53253
40045,53208
40037,53176
40031,53163
40021,53149
40049,53172
40048,53192
40054,53228
40054,53223
40070,53288
40075,53291
40086,53317
40098,53357
40120,53369
40093,53400
40116,53417
40119,53432
40112,53439
40114,53445
40119,53444
40110,53464
40133,53493
40125,53538
40159,53545
40151,53565
40157,53575
40151,53585
40149,53597
40162,53579
40154,53574
40153,53567
40139,53563
40138,53529
40137,53541
40144,53522
40118,53509
40128,53514
40145,53525
40132,53500
40135,53505
40102,53522
40131,53536
40142,53541
40131,53558
40134,53561
40139,53576
40147,53581
40147,53589
40147,53600
40156,53604
40147,53617
40167,53622
40153,53649
40163,53643
40170,53654
40175,53661
40185,53673
40171,53682
40185,53702
40172,53704
40185,53696
40191,53714
40176,53718
40185,53737
40169,53732
40183,53736
40186,53751
40190,53761
40180,53765
40196,53775
40194,53798
40197,53781
40203,53791
40204,53807
40207,53798
40196,53825
40202,53823
40205,53814
40205,53821
40214,53824
40205,53845
40212,53840
40198,53851
40199,53865
40213,53834
40208,53871
40220,53881
40210,53893
40196,53872
40226,53890
40212,53886
40212,53894
40213,53894
40205,53910
40245,53915
40215,53915
40226,53924
40230,53916
40223,53931
40217,53976
40226,53948
40229,53918
40230,53924
40223,53966
40237,53978
40231,53971
40233,53973
40214,53981
40212,53936
40206,53858
40192,53763
40154,53643
40105,53528
40064,53393
40030,53290
40013,53256
40023,53218
40023,53212
40033,53191
40040,53187
40030,53206
40041,53235
40053,53277
40038,53300
40070,53338
40082,53363
40091,53382
40095,53429
40102,53457
40112,53459
40093,53492
40121,53509
40123,53527
40138,53537
40142,53563
40134,53591
40147,53620
40156,53627
40159,53643
40157,53657
40169,53650
40160,53661
40152,53660
40153,53622
40143,53599
40143,53609
40145,53579
40126,53563
40135,53557
40149,53563
40117,53553
40121,53578
40129,53551
40134,53568
40140,53578
40139,53578
40132,53591
40156,53602
40144,53617
40148,53621
40158,53633
40135,53638
40148,53676
40153,53667
40162,53683
40164,53681
40153,53688
40162,53706
40163,53720
40168,53737
40185,53736
40175,53738
40183,53750
40173,53752
40191,53751
40187,53755
40183,53776
40179,53791
40187,53772
40188,53806
40194,53791
40194,53815
40190,53801
40197,53831
40206,53823
40207,53826
40205,53852
40192,53846
40198,53849
40195,53856
40208,53879
40193,53882
40202,53880
40220,53891
40212,53881
40211,53903
40214,53894
40213,53896
40206,53927
40208,53931
40206,53921
40212,53943
40206,53929
40228,53921
40203,53936
40222,53939
40204,53940
40215,53953
40223,53969
40214,53978
40224,53975
40220,53973
40213,53990
40219,53990
40202,53997
40213,53975
40229,53958
40199,53892
40168,53792
40129,53658
40082,53499
40064,53390
40024,53300
40024,53226
40019,53189
39996,53164
40005,53142
40004,53161
40009,53151
40026,53188
40034,53215
40042,53231
40047,53266
40055,53279
40063,53313
40059,53340
40067,53366
40068,53371
40079,53388
40082,53406
40083,53412
40093,53443
40095,53452
40121,53459
40100,53495
40116,53523
40128,53553
40138,53553
40142,53572
40147,53589
40128,53567
40124,53573
40122,53558
40118,53552
40114,53559
40126,53528
40117,53519
40122,53515
40098,53506
40102,53502
40088,53504
40108,53503
40117,53512
40120,53509
40098,53543
40112,53538
40116,53554
40129,53560
40117,53571
40121,53568
40115,53597
40129,53607
40134,53616
40131,53626
40148,53631
40133,53639
40151,53655
40136,53643
40148,53654
40154,53676
40161,53682
40167,53701
40166,53695
40157,53711
40166,53718
40173,53720
40170,53735
40170,53734
40159,53736
40159,53755
40158,53775
40170,53756
40178,53780
40173,53783
40192,53790
40158,53799
40188,53813
40186,53822
40191,53814
40174,53821
40167,53836
40181,53862
40181,53841
40184,53862
40190,53860
40192,53868
40191,53865
40198,53877
40188,53878
40206,53888
40181,53884
40185,53883
40193,53904
40190,53912
40196,53911
40192,53916
40201,53928
40188,53917
40210,53934
40204,53936
40202,53943
40204,53967
40192,53963
40193,53957
40208,53965
40205,53961
40215,53975
40215,53979
40206,53993
40224,54017
40207,53982
40190,53981
40185,53937
40170,53846
40128,53713
40111,53592
40062,53446
40041,53334
40007,53244
40004,53208
40000,53156
39986,53158
39991,53146
40008,53159
40030,53171
40014,53202
40025,53213
40025,53242
40032,53254
40050,53331
40073,53365
40057,53365
40062,53362
40068,53401
40057,53406
40077,53420
40076,53421
40089,53458
40084,53492
40104,53494
40093,53517
40107,53541
40138,53550
40111,53574
40115,53582
40099,53578
40105,53573
40117,53554
40109,53541
40109,53543
40109,53521
40101,53519
40080,53519
40094,53503
40103,53504
40089,53508
40093,53501
40103,53509
40117,53528
40094,53522
40115,53556
40104,53544
40108,53569
40113,53586
40120,53588
40119,53601
40105,53603
40117,53599
40134,53616
40136,53632
40127,53660
40118,53653
40127,53661
40132,53657
40137,53685
40149,53685
40145,53703
40154,53720
40158,53705
40150,53702
40159,53723
40162,53736
40157,53719
40146,53740
40150,53757
40176,53753
40166,53750
40152,53782
40155,53782
40163,53791
40168,53795
40173,53795
40155,53812
40179,53804
40169,53814
40184,53834
40175,53827
40159,53829
40182,53831
40179,53842
40168,53858
40170,53848
40176,53868
40185,53866
40197,53865
40163,53887
40172,53872
40178,53904
40177,53889
40190,53899
40183,53889
40184,53923
40181,53911
40190,53915
40202,53926
40195,53929
40189,53930
40191,53938
40183,53953
40186,53961
40200,53948
40205,53963
40176,53967
40200,53988
40199,53987
40215,54001
40199,53991
40179,53967
40177,53934
40150,53852
40137,53754
40099,53632
40060,53487
40039,53361
40005,53275
39999,53241
40006,53210
39989,53182
39979,53184
40005,53202
40011,53223
40016,53253
40023,53284
40047,53307
40034,53338
40046,53375
40065,53393
40060,53417
40075,53452
40089,53468
40086,53487
40086,53514
40093,53529
40092,53553
40110,53565
40106,53586
40126,53606
40124,53647
40137,53646
40132,53653
40130,53655
40125,53655
40121,53635
40122,53623
40114,53627
40113,53608
40120,53584
40119,53576
40097,53564
40092,53554
40089,53563
40102,53561
40088,53563
40107,53558
40097,53560
40094,53574
40113,53585
40110,53601
40128,53610
40122,53619
40128,53634
40119,53649
40130,53662
40126,53677
40122,53672
40143,53691
40135,53685
40136,53700
40136,53706
40137,53711
40142,53717
40153,53743
40142,53748
40152,53753
40153,53754
40154,53764
40151,53781
40143,53775
40159,53783
40157,53790
40148,53811
40156,53793
40177,53819
40158,53810
40152,53835
40176,53823
40179,53847
40167,53840
40163,53849
40180,53848
40179,53865
40165,53881
40169,53866
40168,53890
40173,53891
40170,53892
40182,53890
40168,53903
40173,53915
40174,53919
40162,53932
40168,53933
40179,53937
40176,53937
40170,53933
40190,53954
40188,53968
40185,53973
40185,53958
40191,53976
40186,53968
40195,53974
40195,53986
40190,53996
40204,54000
40185,53979
40175,53963
40178,53904
40155,53846
40127,53702
40088,53586
40060,53433
40023,53310
39997,53262
39982,53218
39992,53164
39991,53148
39983,53172
39992,53180
39980,53210
39998,53232
40007,53251
40020,53265
40025,53296
40041,53323
40048,53346
40056,53373
40049,53389
40045,53403
40056,53436
40063,53437
40057,53455
40066,53460
40085,53507
40083,53500
40077,53536
40103,53561
40110,53596
40103,53590
40112,53582
40096,53596
40105,53600
40094,53591
40083,53583
40134,53587
40091,53562
40080,53567
40086,53538
40074,53544
40081,53549
40087,53526
40081,53496
40075,53501
40101,53542
40089,53558
40097,53574
40083,53574
40117,53591
40105,53610
40101,53604
40114,53614
40123,53623
40141,53647
40123,53668
40074,53662
40085,53507
40114,53687
40124,53682
40132,53689
40124,53708
40131,53725
40134,53726
40149,53732
40140,53728
40153,53755
40122,53745
40137,53762
40131,53771
40156,53775
40149,53776
40151,53777
40137,53795
40162,53814
40147,53810
40155,53812
40152,53829
40157,53832
40172,53847
40162,53842
40153,53839
40169,53853
40162,53860
40172,53863
40160,53873
40171,53881
40163,53870
40159,53888
40174,53903
40172,53907
40176,53891
40172,53924
40182,53935
40186,53919
40176,53935
40171,53928
40170,53960
40181,53943
40163,53939
40180,53949
40176,53970
40184,53967
40179,53968
40179,53969
40199,53986
40186,54003
40180,53989
40184,54019
40193,54005
40173,53992
40181,53968
40148,53902
40152,53814
40087,53685
40053,53529
40025,53405
39996,53297
39968,53244
39986,53192
39976,53177
39971,53152
39967,53147
39982,53166
40003,53197
39998,53221
40010,53245
40020,53274
40001,53300
40029,53331
40024,53348
40024,53374
40035,53392
40041,53401
40040,53424
40067,53439
40053,53457
40059,53457
40061,53481
40085,53515
40073,53553
40092,53556
40092,53589
40098,53572
40104,53596
40090,53594
40091,53594
40086,53582
40088,53575
40082,53573
40082,53559
40069,53536
40065,53518
40062,53520
40083,53520
40078,53520
40077,53522
40074,53526
40081,53525
40063,53547
40082,53553
40089,53561
40096,53562
40079,53578
40081,53600
40086,53601
40107,53628
40104,53623
40101,53630
40088,53635
40102,53657
40102,53655
40118,53678
40113,53688
40112,53703
40121,53700
40110,53722
40123,53730
40123,53729
40125,53730
40128,53744
40129,53744
40122,53748
40121,53775
40138,53770
40136,53777
40133,53791
40127,53782
40133,53801
40147,53804
40127,53830
40140,53813
40151,53816
40153,53829
40152,53834
40155,53863
40143,53856
40156,53853
40144,53853
40150,53865
40154,53896
40160,53877
40161,53883
40150,53888
40157,53898
40165,53904
40155,53900
40173,53909
40164,53915
40162,53925
40159,53921
40166,53936
40159,53937
40159,53948
40155,53938
40162,53954
40160,53970
40171,53963
40173,53971
40172,53972
40166,53991
40180,53985
40173,54013
40177,53996
40169,53999
40183,53995
40165,53964
40158,53914
40118,53820
40076,53688
40052,53552
40016,53427
40000,53330
39986,53276
39980,53228
39960,53204
39969,53197
39975,53197
39990,53216
39980,53253
40000,53266
39995,53293
40018,53335
40013,53368
40033,53410
40039,53427
40052,53443
40049,53473
40051,53481
40065,53507
40068,53514
40078,53551
40073,53568
40080,53589
40086,53618
40102,53631
40097,53651
40104,53649
40093,53664
40095,53671
40099,53655
40103,53637
40093,53642
40084,53615
40082,53613
40077,53594
40067,53577
40083,53577
40080,53579
40070,53567
40061,53554
40069,53565
40069,53582
40090,53584
40083,53599
40087,53602
40085,53581
40085,53629
40091,53642
40109,53630
40096,53655
40103,53670
40085,53684
40111,53686
40103,53696
40110,53707
40146,53712
40115,53723
40125,53726
40117,53741
40127,53756
40124,53796
40127,53765
40132,53740
40127,53744
40138,53797
40132,53796
40130,53799
40135,53819
40133,53831
40128,53816
40146,53822
40160,53843
40162,53852
40158,53850
40143,53837
40113,53874
40132,53873
40136,53888
40143,53879
40146,53891
40145,53897
40148,53903
40149,53905
40160,53901
40150,53926
40154,53911
40157,53917
40146,53913
40147,53922
40139,53938
40166,53933
40156,53944
40157,53961
40149,53965
40168,53959
40166,53967
40175,53986
40165,53984
40159,53975
40161,53988
40142,53979
40151,53952
40137,53879
40108,53796
40090,53663
40044,53521
40011,53393
39972,53295
39972,53244
39947,53185
39945,53182
39947,53180
39958,53161
39963,53185
39979,53226
39977,53243
39985,53268
39993,53294
40001,53327
40012,53340
40025,53376
40017,53392
40030,53421
40044,53410
40025,53437
40041,53458
40036,53470
40045,53507
40052,53524
40051,53545
40080,53578
40086,53591
40081,53602
40076,53613
40092,53619
40084,53621
40088,53616
40068,53597
40075,53589
40068,53566
40071,53562
40068,53564
40058,53551
40065,53541
40044,53549
40052,53543
40066,53557
40063,53552
40047,53566
40053,53565
40064,53554
40064,53582
40083,53585
40077,53598
40078,53623
40085,53619
40084,53631
40093,53659
40089,53647
40096,53664
40096,53662
40087,53680
40096,53694
40100,53713
40108,53714
40089,53724
40112,53733
40111,53745
40106,53745
40106,53750
40111,53766
40124,53770
40111,53772
40117,53771
40128,53773
40111,53798
40109,53810
40112,53825
40120,53825
40123,53820
40122,53820
40129,53839
40121,53836
40120,53836
40129,53857
40135,53874
40126,53868
40138,53878
40148,53882
40131,53888
40143,53903
40151,53895
40140,53909
40129,53911
40150,53913
40140,53917
40130,53941
40147,53928
40145,53934
40155,53946
40158,53940
40143,53949
40124,53959
40159,53963
40136,53964
40144,53985
40155,53981
40144,53980
40153,53990
40148,53991
40149,54003
40148,54002
40168,54009
40156,53982
40150,53955
40119,53889
40094,53773
40054,53643
40030,53481
39991,53358
39962,53271
39951,53228
39937,53193
39945,53156
39935,53156
39953,53180
39958,53187
39967,53218
39960,53229
39983,53253
39983,53286
39997,53317
40005,53340
40005,53362
40015,53385
40023,53402
40006,53396
40009,53426
40018,53458
40025,53442
40043,53499
40042,53506
40025,53529
40057,53541
40041,53564
40069,53581
40060,53592
40059,53587
40057,53589
40066,53608
40056,53587
40057,53574
40045,53573
40038,53549
40053,53527
40042,53524
40038,53532
40043,53525
40040,53533
40046,53530
40056,53540
40048,53550
40050,53545
40044,53568
40055,53578
40059,53567
40059,53600
40070,53593
40063,53614
40078,53607
40072,53630
40078,53636
40087,53653
40070,53650
40088,53650
40083,53677
40108,53681
40100,53703
40089,53718
40094,53712
40088,53721
40103,53725
40091,53727
40092,53730
40091,53759
40109,53759
40107,53752
40102,53759
40107,53782
40112,53792
40103,53803
40096,53782
40109,53822
40102,53809
40118,53822
40109,53795
40104,53837
40098,53839
40119,53834
40126,53844
40119,53854
40131,53863
40108,53868
40121,53863
40140,53872
40120,53874
40128,53894
40118,53890
40128,53909
40126,53928
40135,53908
40142,53885
40139,53885
40137,53906
40132,53926
40140,53935
40128,53936
40126,53960
40134,53936
40142,53963
40170,53956
40171,53958
40146,53975
40138,53990
40138,53980
40143,53986
40128,53961
40111,53914
40105,53821
40059,53710
40059,53606
40016,53453
39985,53353
39959,53275
39960,53235
39939,53221
39942,53201
39946,53186
39954,53208
39956,53247
39963,53278
39980,53298
39984,53321
39997,53361
40004,53387
40013,53416
40017,53433
40027,53463
40028,53483
40028,53496
40045,53525
40051,53532
40050,53547
40053,53580
40070,53604
40071,53611
40067,53634
40071,53665
40071,53657
40079,53663
40066,53653
40062,53637
40075,53636
40069,53621
40055,53598
40047,53586
40051,53580
40048,53573
40058,53569
40047,53577
40045,53576
40050,53573
40053,53578
40048,53590
40046,53600
40062,53597
40061,53620
40070,53621
40066,53624
40066,53655
40073,53665
40074,53669
40074,53681
40073,53697
40070,53699
40080,53700
40080,53723
40090,53725
40090,53730
40087,53736
40087,53746
40091,53757
40093,53762
40106,53768
40091,53787
40109,53791
40105,53798
40107,53791
40106,53796
40102,53818
40107,53836
40101,53829
40109,53841
40100,53835
40118,53850
40102,53853
40120,53867
40117,53874
40118,53885
40107,53875
40113,53893
40121,53913
40130,53896
40127,53899
40133,53910
40118,53910
40122,53920
40125,53922
40117,53926
40132,53928
40132,53944
40133,53945
40137,53946
40130,53955
40124,53948
40136,53962
40126,53968
40147,53995
40127,53984
40150,53984
40130,54001
40140,53988
40146,54001
40140,53977
40121,53933
40088,53860
40066,53765
40039,53632
39994,53486
39958,53373
39948,53266
39941,53221
39932,53187
39929,53172
39926,53162
39932,53182
39942,53195
39954,53227
39949,53252
39953,53256
39967,53298
39982,53328
39976,53350
39985,53371
39992,53383
40000,53406
40004,53426
40023,53427
40011,53451
40012,53452
40015,53477
40024,53517
40035,53524
40039,53556
40049,53577
40043,53581
40044,53590
40049,53595
40052,53582
40045,53610
40033,53581
40045,53582
40033,53577
40046,53568
40029,53553
40036,53541
40039,53539
40035,53540
40017,53539
40029,53537
40041,53551
40037,53546
40042,53560
40033,53576
40044,53590
40039,53589
40053,53611
40044,53626
40041,53616
40058,53626
40058,53642
40068,53652
40062,53665
40069,53679
40086,53679
40071,53691
40077,53712
40072,53712
40081,53734
40074,53724
40096,53737
40088,53727
40090,53756
40081,53765
40086,53760
40106,53771
40104,53793
40092,53798
40100,53791
40092,53816
40100,53797
40099,53807
40092,53824
40101,53836
40115,53844
40090,53841
40104,53843
40099,53846
40093,53855
40117,53853
40111,53878
40114,53888
40111,53883
40099,53892
40115,53896
40110,53895
40109,53909
40109,53912
40108,53909
40126,53914
40118,53917
40119,53930
40114,53933
40121,53941
40131,53941
40115,53951
40113,53951
40127,53973
40131,53969
40131,53972
40128,53998
40136,53996
40134,53990
40126,53998
40132,54008
40140,54004
40139,54007
40139,54013
40126,54000
40117,53935
40091,53859
40061,53761
40039,53618
39987,53463
39947,53336
39923,53270
39920,53206
39930,53188
39903,53198
39923,53191
39920,53184
39940,53186
39949,53229
39954,53264
39962,53302
39974,53334
39974,53365
39972,53373
39978,53397
39981,53419
40021,53424
40042,53445
40014,53456
39969,53475
40020,53489
40001,53505
40026,53523
40028,53547
40020,53564
40027,53580
40038,53599
40046,53595
40044,53598
40035,53585
40045,53573
40042,53561
40024,53567
40033,53553
40036,53549
40010,53532
40024,53525
40025,53524
40017,53530
40028,53532
40020,53538
40033,53536
40036,53554
40035,53566
40036,53586
40027,53581
40045,53601
40042,53599
40028,53623
40042,53634
40056,53637
40049,53646
40054,53656
40059,53674
40068,53704
40058,53707
40064,53700
40061,53715
40081,53725
40077,53726
40078,53737
40073,53739
40087,53763
40089,53769
40078,53757
40086,53779
40079,53773
40082,53799
40081,53793
40082,53798
40093,53812
40089,53822
40089,53824
40103,53836
40101,53845
40101,53834
40095,53840
40102,53861
40089,53854
40114,53877
40124,53876
40103,53878
40122,53896
40113,53908
40119,53920
40105,53908
40106,53920
40116,53931
40115,53917
40104,53934
40114,53953
40113,53951
40122,53952
40118,53956
40110,53951
40114,53971
40123,53973
40116,53978
40124,53977
40130,53977
40140,53986
40132,54006
40126,54017
40132,54010
40116,54024
40139,54038
40126,54025
40147,54050
40140,54048
40139,54047
40127,54023
40122,53989
40104,53948
40082,53836
40056,53712
40021,53585
39966,53431
39954,53343
39936,53270
39932,53236
39926,53238
39933,53238
39946,53235
39943,53245
39956,53279
39950,53302
39975,53357
39978,53356
39989,53398
40004,53440
40010,53458
40004,53478
40017,53493
40017,53508
40005,53544
40018,53544
40025,53569
40040,53581
40049,53612
40048,53636
40064,53639
40073,53664
40042,53663
40054,53677
40066,53669
40055,53680
40039,53680
40061,53674
40047,53658
40057,53630
40048,53636
40043,53629
40033,53612
40037,53596
40036,53598
40027,53612
40042,53616
40046,53613
40040,53621
40056,53627
40033,53628
40058,53637
40054,53660
40059,53666
40047,53684
40056,53683
40069,53696
40070,53706
40064,53713
40080,53737
40087,53741
40077,53749
40085,53770
40085,53763
40090,53770
40078,53780
40100,53815
40099,53801
40098,53808
40098,53826
40109,53813
40085,53827
40088,53831
40102,53847
40103,53857
40111,53856
40121,53871
40106,53879
40093,53881
40094,53889
40108,53882
40107,53905
40103,53912
40109,53907
40105,53912
40099,53901
40099,53911
40104,53910
40120,53926
40106,53930
40115,53924
40108,53940
40129,53929
40106,53937
40124,53942
40121,53963
40111,53957
40115,53954
40120,53961
40123,53973
40117,53974
40118,53964
40125,53988
40132,53983
40122,54015
40133,53990
40130,54013
40124,54030
40149,54039
40123,54053
40138,54060
40139,54058
40141,54040
40132,54028
40140,53990
40098,53910
40082,53797
40043,53666
39996,53529
39977,53420
39949,53339
39925,53298
39944,53263
39939,53254
39948,53249
39943,53268
39935,53316
39958,53309
39974,53335
39980,53373
39983,53390
40008,53426
40000,53457
40012,53479
40013,53498
40021,53514
40028,53535
40035,53546
40028,53555
40035,53583
40057,53605
40037,53643
40050,53648
40053,53669
40058,53687
40081,53729
40078,53679
40065,53693
40061,53679
40068,53690
40062,53683
40040,53674
40053,53648
40056,53654
40063,53653
40050,53634
40082,53641
40070,53629
40057,53659
40033,53644
40047,53665
40059,53679
40069,53669
40074,53690
40070,53696
40060,53704
40073,53720
40071,53725
40078,53756
40084,53751
40091,53748
40082,53769
40088,53792
40098,53786
40096,53797
40097,53808
40099,53824
40097,53820
40087,53827
40108,53837
40110,53861
40118,53858
40105,53860
40099,53890
40109,53875
40118,53885
40117,53879
40109,53892
40110,53904
40119,53908
40127,53918
40126,53927
40127,53942
40122,53929
40117,53948
40115,53957
40121,53975
40115,53954
40133,53980
40142,53972
40127,53979
40134,53983
40131,53993
40126,53991
40127,54014
40129,54000
40139,54000
40125,54021
40150,54010
40147,54024
40149,54030
40144,54039
40133,54055
40161,54048
40147,54050
40149,54061
40166,54078
40158,54072
40146,54076
40146,54079
40148,54074
40138,54046
40113,53986
40090,53897
40062,53748
40026,53622
40003,53507
39976,53405
39959,53348
39957,53307
39938,53297
39958,53296
39959,53289
39955,53306
39955,53343
39965,53369
40001,53393
39983,53417
39999,53461
40013,53488
40024,53511
40012,53525
40024,53569
40024,53590
40032,53607
40047,53594
40048,53629
40042,53657
40052,53664
40078,53689
40074,53705
40060,53719
40088,53736
40077,53735
40080,53738
40085,53743
40071,53736
40076,53719
40064,53702
40055,53707
40066,53684
40059,53679
40068,53675
40039,53663
40057,53662
40050,53674
40044,53659
40063,53692
40066,53691
40062,53698
40066,53698
40057,53715
40053,53731
40068,53714
40063,53736
40082,53747
40080,53780
40083,53756
40085,53779
40086,53787
40072,53799
40103,53779
40083,53807
40095,53823
40088,53823
40103,53839
40086,53849
40103,53861
40100,53862
40106,53861
40128,53869
40123,53887
40119,53892
40118,53900
40100,53928
40119,53906
40123,53919
40109,53942
40118,53939
40122,53940
40118,53942
40113,53961
40121,53949
40124,53965
40119,53969
40117,53966
40130,53975
40121,53976
40137,53973
40137,53997
40133,53993
40132,54007
40129,53997
40139,54021
40134,54005
40134,54020
40127,54038
40137,54034
40134,54046
40148,54040
40137,54049
40143,54062
40133,54030
40142,54028
40119,53987
40101,53912
40067,53802
40044,53693
40007,53545
39983,53425
39955,53360
39948,53337
39957,53290
39956,53281
39966,53302
39963,53317
39958,53334
39972,53361
39977,53407
39987,53433
39987,53454
40009,53482
40018,53502
40042,53539
40017,53573
40035,53582
40043,53601
40037,53603
40054,53616
40061,53655
40066,53680
40074,53681
40078,53720
40073,53757
40080,53751
40076,53761
40085,53753
40070,53740
40074,53736
40071,53706
40066,53707
40057,53686
40054,53692
40057,53685
40053,53679
40057,53670
40049,53669
40062,53681
40066,53671
40047,53670
40064,53683
40061,53685
40065,53700
40063,53724
40059,53723
40064,53729
40072,53770
40074,53755
40080,53761
40080,53785
40085,53792
40087,53792
40084,53805
40086,53822
40080,53810
40094,53839
40113,53823
40105,53826
40111,53855
40110,53863
40103,53864
40098,53882
40106,53899
40117,53913
40101,53866
40123,53884
40105,53881
40118,53898
40114,53914
40117,53924
40108,53937
40115,53937
40107,53949
40127,53956
40145,53942
40130,53937
40105,53958
40097,53965
40072,53770
40108,53977
40128,53980
40128,53993
40123,53991
40154,54007
40142,54013
40129,54010
40134,54020
40142,54020
40140,54035
40115,54011
40131,54014
40108,53947
40096,53890
40078,53766
40028,53619
39977,53474
39943,53367
39936,53294
39931,53265
39920,53232
39918,53214
39933,53200
39925,53224
39935,53229
39944,53243
39956,53268
39939,53295
39971,53313
39977,53327
39970,53354
39973,53364
39992,53396
39989,53396
39978,53416
39980,53418
40011,53442
40003,53447
39992,53472
40009,53503
40024,53537
40027,53532
40020,53578
40036,53573
40036,53581
40027,53578
40027,53568
40025,53561
40014,53558
40018,53561
40015,53519
40008,53512
40013,53508
40017,53505
40005,53509
40007,53525
40002,53515
40018,53517
40016,53529
40001,53537
40009,53544
40009,53533
40012,53554
40022,53566
40018,53574
40024,53590
40029,53594
40028,53609
40037,53620
40048,53616
40030,53635
40047,53654
40056,53664
40056,53668
40044,53679
40051,53688
40063,53700
40055,53695
40071,53703
40077,53728
40072,53732
40067,53727
40071,53731
40078,53744
40076,53740
40070,53760
40079,53758
40080,53775
40088,53774
40073,53777
40078,53776
40074,53801
40087,53806
40089,53810
40101,53809
40103,53813
40069,53827
40100,53843
40096,53833
40084,53847
40097,53866
40090,53862
40086,53855
40090,53878
40099,53868
40088,53875
40106,53894
40094,53885
40096,53890
40104,53885
40107,53908
40108,53921
40104,53902
40105,53914
40124,53918
40101,53928
40104,53945
40103,53949
40112,53937
40111,53952
40121,53960
40112,53985
40130,53975
40113,53990
40118,53998
40116,53974
40107,53969
40093,53929
40074,53841
40061,53723
40004,53583
39956,53429
39949,53327
39922,53261
39903,53218
39908,53175
39916,53158
39897,53146
39906,53168
39914,53169
39918,53195
39925,53218
39935,53239
39947,53263
39957,53290
39954,53289
39952,53319
39960,53341
39964,53358
39975,53376
39979,53380
39967,53374
39970,53397
39987,53418
39997,53448
39998,53454
39999,53470
40010,53497
40005,53510
40011,53513
40000,53526
40012,53510
40003,53511
39999,53481
40004,53480
39991,53470
39994,53442
39982,53457
39981,53455
39977,53418
39969,53437
39985,53429
39980,53426
39996,53437
40006,53444
39994,53469
39989,53467
39993,53476
39992,53488
39998,53498
40007,53507
40023,53527
39998,53527
40020,53543
40005,53558
40011,53563
40020,53565
40015,53581
40024,53585
40034,53597
40026,53602
40031,53630
40045,53613
40045,53623
40045,53642
40043,53642
40042,53647
40040,53644
40039,53667
40053,53674
40065,53674
40062,53673
40047,53690
40070,53697
40046,53705
40055,53708
40059,53709
40055,53708
40054,53725
40061,53728
40057,53730
40063,53739
40078,53737
40067,53752
40083,53757
40075,53756
40062,53765
40064,53738
40069,53788
40079,53785
40096,53787
40081,53790
40079,53797
40084,53800
40069,53810
40080,53818
40071,53811
40069,53819
40091,53832
40091,53832
40089,53834
40096,53848
40099,53855
40081,53898
40101,53898
40090,53863
40109,53885
40104,53881
40097,53884
40109,53899
40102,53897
40097,53921
40112,53908
40095,53905
40101,53877
40080,53820
40049,53699
40017,53563
39925,53442
39916,53317
39898,53234
39911,53181
39899,53154
39904,53148
39898,53112
39914,53139
39909,53145
39905,53180
39926,53207
39939,53226
39953,53249
39937,53274
39946,53298
39958,53303
39968,53364
39964,53358
39971,53389
39979,53372
39983,53409
40000,53431
39999,53435
39986,53485
40005,53490
40005,53509
40012,53543
40009,53538
40006,53526
40007,53522
40001,53511
39996,53513
39996,53481
40009,53466
39989,53455
39988,53450
39983,53421
39975,53428
39971,53420
39983,53422
39988,53413
39979,53429
39986,53436
40001,53452
40004,53470
39984,53472
40006,53488
39993,53492
40000,53496
40009,53522
40003,53529
40013,53531
40008,53543
40015,53574
40029,53581
40035,53571
40038,53579
40024,53601
40049,53608
40046,53623
40035,53620
40048,53635
40029,53634
40040,53642
40054,53652
40047,53663
40049,53660
40059,53668
40050,53671
40059,53686
40052,53680
40044,53681
40051,53713
40052,53715
40061,53711
40057,53722
40070,53720
40057,53727
40069,53730
40056,53738
40066,53741
40075,53749
40073,53741
40071,53749
40081,53767
40070,53782
40072,53762
40076,53789
40089,53791
40073,53794
40085,53800
40099,53801
40081,53815
