40449,53626
40431,53587
40425,53559
40395,53469
40350,53330
40286,53143
40256,53015
40262,52924
40261,52824
40233,52774
40212,52738
40172,52715
40409,53483
40183,52731
40199,52733
40212,52747
40230,52772
40218,52788
40245,52812
40253,52845
40235,52863
40253,52868
40253,52878
40262,52885
40263,52912
40266,52910
40267,52922
40263,52934
40271,52946
40299,52965
40287,52989
40295,53012
40306,53036
40306,53040
40308,53060
40306,53062
40308,53052
40297,53049
40306,53048
40295,53024
40294,53019
40283,53003
40296,53007
40306,52986
40295,52999
40300,53003
40298,53003
40302,53005
40305,53017
40298,53036
40303,53050
40311,53036
40322,53043
40328,53073
40314,53069
40327,53092
40334,53084
40330,53100
40326,53111
40332,53138
40343,53166
40333,53157
40339,53169
40348,53186
40352,53215
40359,53202
40362,53215
40373,53226
40369,53246
40367,53258
40366,53241
40381,53266
40380,53281
40369,53274
40379,53296
40377,53305
40391,53298
40393,53324
40386,53337
40393,53328
40405,53340
40396,53337
40405,53343
40402,53367
40395,53378
40409,53377
40403,53394
40411,53408
40423,53399
40418,53401
40408,53413
40411,53425
40412,53429
40421,53432
40410,53436
40421,53430
40424,53489
40433,53466
40428,53482
40434,53470
40440,53472
40436,53492
40444,53500
40455,53505
40436,53518
40443,53517
40443,53529
40439,53538
40449,53551
40444,53553
40430,53574
40437,53562
40451,53558
40450,53578
40458,53577
40446,53582
40453,53591
40450,53604
40464,53609
40450,53628
40467,53634
40459,53625
40472,53659
40465,53665
40475,53658
40480,53671
40481,53663
40461,53668
40473,53656
40464,53617
40423,53529
40383,53379
40338,53221
40287,53073
40256,52991
40249,52881
40225,52828
40230,52790
40238,52769
40230,52773
40234,52784
40238,52791
40248,52814
40255,52839
40261,52870
40269,52909
40264,52904
40283,52941
40271,52954
40301,52963
40298,52990
40303,53000
40308,53015
40313,53010
40330,53046
40336,53049
40327,53057
40342,53094
40349,53124
40358,53149
40354,53163
40339,53153
40357,53160
40352,53153
40355,53128
40350,53126
40339,53118
40341,53102
40343,53096
40333,53085
40343,53077
40341,53082
40326,53098
40327,53087
40346,53104
40340,53111
40342,53119
40360,53116
40358,53134
40347,53144
40357,53146
40369,53157
40360,53174
40357,53197
40367,53205
40371,53225
40360,53224
40376,53237
40370,53256
40380,53251
40386,53255
40369,53274
40381,53281
40411,53302
40386,53307
40394,53317
40405,53334
40406,53330
40405,53333
40412,53348
40416,53370
40410,53358
40428,53366
40414,53391
40425,53405
40410,53402
40426,53401
40432,53411
40426,53408
40425,53444
40403,53434
40436,53452
40446,53456
40432,53462
40444,53459
40436,53482
40441,53484
40427,53496
40438,53502
40432,53493
40444,53507
40454,53508
40437,53530
40441,53520
40444,53525
40460,53535
40452,53567
40452,53564
40457,53555
40464,53555
40460,53573
40456,53549
40475,53580
40467,53586
40467,53585
40473,53594
40470,53610
40470,53603
40466,53610
40467,53626
40458,53620
40503,53640
40485,53636
40489,53642
40485,53668
40488,53673
40487,53723
40479,53696
40479,53696
40493,53661
40481,53687
40476,53654
40446,53576
40429,53476
40375,53318
40327,53179
40324,53055
40302,52959
40298,52921
40286,52857
40261,52849
40231,52850
40229,52862
40273,52882
40278,52907
40297,52929
40315,52957
40305,52993
40317,53004
40323,53040
40326,53052
40336,53077
40333,53102
40342,53118
40347,53132
40358,53142
40363,53169
40381,53198
40373,53231
40382,53240
40399,53268
40396,53280
40417,53288
40392,53296
40394,53283
40394,53283
40371,53247
40382,53257
40377,53227
40364,53220
40368,53186
40367,53181
40363,53181
40374,53190
40372,53187
40377,53193
40366,53195
40375,53212
40374,53222
40389,53214
40378,53232
40387,53251
40396,53274
40393,53278
40397,53288
40393,53306
40392,53324
40412,53315
40407,53331
40411,53343
40419,53348
40413,53367
40424,53375
40428,53392
40423,53392
40426,53404
40447,53412
40433,53421
40428,53435
40432,53436
40412,53449
40443,53457
40443,53478
40433,53485
40457,53471
40446,53480
40448,53503
40451,53499
40452,53519
40447,53522
40447,53539
40453,53551
40460,53545
40459,53561
40459,53555
40437,53565
40470,53588
40471,53585
40460,53587
40470,53600
40480,53594
40475,53617
40487,53613
40481,53628
40486,53638
40465,53642
40492,53637
40493,53638
40482,53654
40471,53658
40487,53672
40488,53671
40479,53672
40498,53677
40487,53668
40487,53689
40493,53711
40506,53697
40499,53713
40517,53726
40496,53728
40492,53734
40498,53750
40502,53759
40506,53744
40494,53726
40466,53646
40450,53552
40401,53403
40356,53241
40314,53114
40307,53034
40291,52956
40277,52923
40266,52873
40254,52864
40271,52859
40268,52881
40286,52886
40281,52914
40280,52931
40287,52942
40303,52989
40307,52999
40326,53025
40323,53038
40324,53038
40322,53071
40322,53063
40332,53070
40332,53089
40355,53105
40358,53121
40354,53151
40387,53183
40362,53200
40374,53215
40393,53238
40381,53250
40379,53240
40388,53220
40389,53232
40375,53212
40366,53210
40358,53190
40359,53200
40366,53181
40365,53160
40366,53167
40354,53172
40348,53165
40362,53188
40350,53170
40363,53185
40381,53208
40379,53217
40361,53222
40379,53231
40383,53236
40390,53258
40386,53273
40386,53286
40390,53287
40405,53302
40392,53311
40421,53322
40439,53340
40414,53371
40428,53375
40424,53382
40436,53395
40426,53404
40423,53409
40427,53418
40434,53432
40437,53441
40437,53451
40439,53456
40433,53463
40444,53464
40443,53490
40444,53505
40448,53489
40439,53496
40452,53519
40444,53518
40448,53534
40457,53549
40459,53551
40439,53555
40465,53552
40460,53553
40470,53572
40457,53594
40470,53595
40467,53617
40467,53593
40470,53600
40489,53623
40463,53622
40470,53614
40476,53636
40471,53634
40480,53629
40481,53646
40476,53663
40490,53669
40480,53659
40477,53664
40476,53680
40484,53674
40487,53691
40490,53710
40500,53712
40490,53709
40492,53730
40495,53718
40497,53728
40501,53748
40510,53744
40505,53765
40504,53798
40516,53780
40504,53771
40503,53742
40481,53715
40477,53645
40412,53514
40374,53340
40343,53189
40294,53083
40307,53016
40281,52954
40267,52915
40261,52906
40271,52892
40481,53646
40288,52944
40275,52967
40300,52984
40311,53010
40344,53013
40342,53043
40333,53083
40332,53117
40340,53103
40338,53134
40339,53131
40361,53157
40378,53170
40387,53182
40406,53209
40401,53223
40361,53247
40516,53780
40380,53281
40392,53300
40396,53290
40394,53294
40401,53287
40396,53293
40385,53273
40388,53253
40387,53230
40364,53239
40384,53220
40377,53220
40371,53226
40385,53228
40378,53240
40378,53249
40388,53255
40382,53250
40392,53271
40391,53281
40398,53286
40391,53294
40398,53317
40398,53334
40413,53339
40421,53349
40393,53352
40413,53382
40422,53398
40422,53393
40423,53408
40439,53421
40456,53430
40436,53445
40442,53457
40456,53455
40448,53464
40444,53483
40452,53485
40451,53513
40457,53503
40441,53527
40437,53529
40450,53554
40443,53552
40448,53551
40458,53573
40467,53560
40462,53572
40457,53582
40473,53588
40466,53611
40472,53608
40475,53620
40472,53621
40476,53625
40470,53637
40473,53660
40473,53654
40478,53645
40479,53659
40493,53687
40494,53661
40483,53685
40502,53689
40490,53689
40493,53707
40493,53717
40496,53703
40484,53718
40491,53720
40494,53727
40492,53735
40495,53733
40500,53748
40497,53759
40502,53771
40509,53771
40508,53783
40507,53785
40505,53781
40506,53790
40509,53802
40532,53809
40506,53842
40519,53821
40532,53830
40516,53849
40535,53848
40526,53849
40520,53853
40520,53858
40513,53797
40476,53726
40456,53610
40397,53480
40368,53303
40322,53187
40318,53111
40319,53058
40293,53030
40292,53002
40283,52987
40297,53003
40307,53027
40321,53036
40332,53078
40345,53082
40335,53132
40348,53153
40351,53189
40376,53211
40381,53217
40372,53240
40384,53256
40396,53262
40391,53285
40400,53288
40399,53313
40404,53335
40420,53363
40415,53374
40433,53411
40431,53429
40419,53423
40437,53433
40425,53433
40417,53421
40414,53417
40419,53396
40428,53398
40392,53359
40409,53370
40402,53360
40412,53355
40415,53357
40409,53351
40406,53350
40410,53370
40408,53365
40415,53368
40416,53400
40413,53404
40435,53422
40429,53416
40421,53435
40436,53457
40435,53462
40443,53478
40431,53484
40435,53480
40443,53506
40452,53520
40447,53536
40447,53545
40456,53550
40449,53576
40464,53553
40457,53562
40453,53606
40471,53594
40463,53625
40458,53625
40459,53628
40476,53649
40484,53649
40477,53656
40468,53644
40484,53679
40476,53672
40486,53684
40495,53693
40482,53693
40472,53703
40492,53735
40493,53721
40493,53727
40495,53735
40487,53741
40506,53745
40496,53760
40506,53759
40502,53776
40502,53786
40497,53774
40509,53779
40518,53785
40503,53786
40504,53793
40519,53816
40518,53806
40494,53816
40512,53828
40508,53816
40512,53829
40515,53835
40524,53843
40524,53855
40518,53862
40514,53866
40507,53866
40521,53885
40523,53887
40533,53885
40525,53905
40531,53918
40536,53916
40540,53929
40518,53929
40521,53937
40526,53916
40528,53876
40503,53823
40465,53708
40441,53582
40376,53430
40359,53333
40339,53230
40339,53180
40307,53149
40311,53122
40325,53114
40321,53133
40326,53154
40341,53183
40362,53199
40358,53243
40365,53271
40389,53290
40377,53324
40394,53359
40374,53377
40412,53397
40407,53426
40419,53448
40434,53451
40423,53472
40438,53490
40446,53519
40454,53556
40450,53566
40456,53577
40469,53589
40457,53592
40471,53581
40463,53576
40466,53557
40451,53543
40421,53532
40418,53503
40429,53497
40422,53491
40434,53510
40421,53486
40428,53490
40436,53496
40434,53503
40435,53509
40434,53528
40443,53545
40440,53527
40458,53566
40459,53571
40442,53571
40453,53573
40458,53602
40468,53629
40465,53622
40479,53644
40466,53650
40460,53647
40465,53674
40478,53668
40486,53682
40471,53682
40487,53691
40481,53708
40490,53710
40486,53734
40474,53736
40484,53763
40486,53746
40492,53760
40502,53766
40512,53790
40491,53777
40499,53782
40506,53794
40496,53812
40503,53802
40498,53822
40503,53809
40516,53840
40504,53843
40497,53843
40514,53854
40503,53851
40514,53868
40529,53854
40516,53880
40511,53879
40521,53876
40505,53893
40537,53900
40516,53903
40513,53912
40520,53901
40525,53921
40518,53939
40537,53921
40528,53948
40531,53936
40518,53931
40534,53943
40539,53950
40521,53967
40530,53981
40544,53971
40532,53991
40542,53989
40534,54010
40528,54004
40534,53967
40513,53938
40496,53849
40460,53759
40426,53624
40388,53453
40358,53342
40346,53260
40327,53202
40316,53158
40311,53147
40327,53153
40314,53176
40319,53166
40332,53199
40362,53228
40362,53250
40373,53273
40371,53305
40377,53331
40390,53341
40394,53354
40400,53377
40388,53405
40399,53396
40391,53414
40413,53442
40410,53452
40422,53478
40419,53494
40439,53515
40441,53545
40433,53562
40442,53573
40453,53583
40443,53587
40433,53585
40440,53571
40432,53559
40430,53548
40427,53529
40424,53523
40429,53513
40413,53509
40428,53516
40413,53504
40427,53510
40420,53519
40427,53529
40442,53524
40429,53538
40435,53560
40432,53542
40446,53563
40447,53558
40442,53598
40453,53604
40461,53613
40444,53631
40456,53652
40439,53643
40460,53649
40470,53668
40464,53670
40453,53700
40468,53704
40486,53721
40469,53746
40489,53740
40470,53748
40469,53741
40473,53755
40482,53776
40478,53755
40486,53780
40500,53789
40486,53801
40501,53804
40486,53799
40492,53820
40489,53826
40501,53837
40498,53840
40503,53849
40502,53849
40494,53867
40515,53874
40506,53877
40497,53881
40514,53902
40510,53896
40507,53904
40502,53919
40517,53902
40519,53919
40509,53925
40506,53936
40506,53941
40515,53945
40514,53961
40519,53953
40526,53966
40523,53974
40513,53969
40526,53968
40521,53970
40515,53983
40517,53990
40520,53997
40520,54018
40537,54020
40523,54014
40544,54033
40523,54020
40525,54039
40519,54004
40507,53991
40502,53914
40447,53806
40420,53662
40380,53500
40339,53386
40329,53317
40327,53259
40309,53202
40309,53184
40312,53184
40315,53207
40321,53209
40324,53236
40340,53266
40345,53291
40365,53316
40359,53338
40365,53369
40391,53385
40396,53420
40390,53424
40395,53452
40402,53457
40414,53483
40414,53501
40424,53499
40413,53553
40426,53559
40432,53569
40447,53589
40446,53610
40426,53625
40436,53608
40459,53634
40438,53624
40437,53625
40434,53614
40421,53602
40417,53582
40417,53572
40415,53573
40412,53558
40406,53558
40411,53557
40402,53567
40415,53587
40408,53590
40438,53597
40431,53570
40422,53598
40441,53602
40420,53637
40447,53633
40455,53672
40455,53675
40436,53696
40465,53698
40461,53705
40468,53703
40478,53743
40473,53719
40467,53751
40445,53759
40439,53762
40463,53782
40465,53785
40458,53796
40466,53802
40469,53798
40475,53823
40469,53837
40483,53824
40490,53843
40485,53855
40478,53873
40479,53858
40487,53876
40484,53875
40485,53886
40498,53900
40497,53905
40479,53916
40497,53926
40491,53930
40501,53925
40504,53947
40505,53954
40505,53953
40499,53966
40494,53959
40507,53966
40496,53967
40516,53963
40511,53986
40507,53992
40521,54007
40498,53995
40503,54007
40503,54021
40513,54016
40513,54036
40502,54027
40530,54033
40516,54032
40518,54049
40506,54050
40507,54052
40516,54047
40515,54062
40526,54073
40515,54079
40525,54092
40525,54092
40516,54107
40528,54048
40501,53988
40467,53890
40435,53761
40392,53628
40363,53470
40337,53390
40325,53334
40305,53307
40324,53279
40309,53265
40318,53278
40323,53290
40348,53332
40346,53352
40343,53398
40377,53386
40374,53433
40375,53446
40389,53477
40407,53497
40406,53525
40393,53553
40408,53568
40416,53567
40412,53603
40421,53611
40427,53650
40428,53661
40446,53683
40443,53716
40451,53717
40450,53728
40443,53724
40458,53735
40452,53712
40450,53717
40442,53702
40426,53690
40430,53674
40426,53669
40440,53672
40419,53661
40422,53647
40423,53651
40418,53641
40408,53665
40413,53676
40421,53688
40436,53681
40432,53683
40436,53711
40426,53717
40421,53733
40444,53733
40434,53736
40449,53750
40427,53764
40456,53790
40445,53800
40454,53792
40453,53815
40461,53800
40476,53830
40464,53839
40458,53837
40458,53860
40458,53851
40463,53865
40477,53875
40466,53889
40477,53904
40485,53896
40485,53910
40480,53906
40478,53917
40468,53921
40486,53913
40491,53927
40481,53946
40484,53957
40482,53953
40483,53984
40499,53974
40482,53969
40500,53982
40508,53997
40505,53993
40503,54000
40513,54017
40487,54021
40490,54017
40496,54014
40502,54016
40504,54032
40493,54046
40482,54033
40506,54032
40503,54052
40491,54052
40514,54070
40511,54066
40506,54071
40514,54072
40499,54103
40496,54088
40507,54102
40505,54099
40493,54076
40482,54059
40482,53979
40454,53875
40411,53750
40374,53619
40340,53495
40325,53428
40315,53359
40307,53326
40300,53299
40302,53291
40302,53299
40304,53323
40309,53334
40353,53372
40339,53413
40356,53401
40356,53438
40369,53469
40375,53509
40382,53516
40372,53538
40394,53561
40401,53559
40394,53602
40410,53609
40404,53653
40419,53649
40404,53678
40407,53697
40425,53719
40438,53730
40442,53746
40443,53745
40415,53738
40429,53738
40414,53706
40410,53710
40421,53696
40414,53692
40395,53683
40403,53654
40416,53667
40412,53678
40422,53661
40407,53662
40402,53674
40419,53682
40409,53704
40422,53707
40430,53717
40410,53714
40409,53732
40436,53724
40429,53766
40422,53769
40431,53776
40447,53774
40454,53793
40443,53804
40442,53824
40431,53827
40441,53846
40460,53855
40446,53868
40453,53863
40450,53879
40446,53878
40463,53877
40454,53909
40466,53900
40470,53917
40462,53919
40462,53940
40460,53948
40481,53920
40468,53924
40461,53946
40457,53972
40480,53970
40479,53976
40467,53988
40474,53998
40487,53995
40477,54013
40508,54009
40492,54014
40486,54026
40470,54030
40459,54046
40476,54040
40482,54040
40487,54045
40503,54068
40492,54074
40492,54052
40505,54071
40492,54079
40493,54078
40482,54091
40495,54093
40491,54098
40491,54100
40489,54121
40489,54125
40507,54139
40503,54135
40488,54137
40494,54135
40477,54110
40470,54067
40459,54004
40415,53878
40386,53744
40327,53581
40315,53459
40304,53402
40299,53331
40290,53305
40287,53306
40275,53281
40276,53296
40301,53308
40293,53329
40319,53354
40310,53380
40322,53404
40335,53449
40341,53474
40347,53479
40343,53495
40360,53522
40358,53533
40369,53537
40361,53536
40363,53571
40369,53585
40380,53606
40382,53639
40389,53664
40403,53682
40400,53703
40398,53701
40395,53713
40397,53704
40406,53695
40392,53692
40380,53676
40385,53670
40380,53682
40387,53645
40382,53642
40377,53641
40374,53655
40376,53637
40377,53645
40393,53652
40385,53658
40382,53667
40387,53666
40399,53679
40390,53698
40401,53695
40401,53704
40397,53726
40395,53733
40412,53750
40409,53754
40409,53770
40413,53791
40416,53785
40413,53802
40412,53799
40438,53820
40429,53832
40411,53841
40434,53858
40436,53868
40426,53864
40432,53872
40435,53872
40419,53885
40436,53908
40444,53911
40437,53903
40429,53915
40439,53909
40456,53934
40435,53936
40442,53934
40457,53951
40445,53957
40436,53971
40457,53988
40453,53964
40468,53991
40442,53985
40461,54001
40457,54009
40462,54016
40453,54000
40457,54003
40456,54031
40458,54038
40444,54027
40455,54036
40454,54034
40454,54041
40470,54041
40455,54056
40471,54053
40453,54074
40457,54076
40474,54089
40468,54094
40464,54100
40461,54106
40471,54113
40484,54112
40457,54110
40475,54116
40463,54084
40439,54017
40428,53933
40382,53808
40340,53661
40306,53521
40304,53433
40278,53368
40248,53324
40252,53300
40264,53308
40277,53308
40271,53324
40293,53335
40292,53364
40305,53385
40307,53408
40319,53413
40327,53442
40317,53466
40326,53492
40329,53509
40341,53516
40342,53539
40352,53549
40343,53551
40369,53590
40369,53610
40367,53629
40379,53660
40384,53662
40384,53682
40371,53694
40367,53710
40386,53704
40375,53701
40376,53696
40363,53687
40369,53665
40367,53669
40359,53639
40356,53634
40373,53639
40356,53622
40360,53641
40352,53637
40358,53633
40356,53639
40371,53663
40372,53666
40362,53680
40381,53685
40375,53691
40373,53693
40388,53710
40373,53722
40387,53728
40382,53732
40390,53746
40379,53766
40390,53771
40393,53776
40410,53796
40398,53802
40391,53799
40400,53826
40395,53842
40414,53840
40411,53853
40420,53862
40419,53851
40416,53866
40413,53874
40416,53879
40416,53898
40407,53905
40424,53913
40423,53915
40430,53923
40429,53920
40417,53952
40415,53954
40424,53960
40424,53959
40415,53957
40425,53955
40434,53968
40427,53969
40426,53960
40430,53963
40429,53998
40440,53978
40433,54007
40425,53999
40453,54018
40441,54007
40462,54036
40438,54027
40437,54032
40445,54030
40458,54058
40453,54062
40464,54080
40437,54050
40432,54016
40431,53963
40414,53908
40371,53812
40335,53687
40305,53561
40284,53453
40270,53387
40239,53356
40265,53316
40269,53313
40257,53296
40264,53318
40279,53355
40263,53373
40271,53395
40288,53406
40306,53440
40322,53445
40299,53469
40316,53496
40319,53514
40322,53532
40322,53538
40344,53572
40346,53565
40338,53604
40354,53626
40362,53643
40366,53671
40365,53688
40363,53676
40367,53692
40366,53709
40364,53693
40367,53683
40352,53671
40363,53668
40344,53649
40338,53638
40334,53620
40328,53611
40335,53596
40337,53604
40343,53594
40325,53613
40340,53613
40335,53633
40339,53638
40335,53641
40350,53648
40359,53655
40350,53667
40363,53682
40376,53689
40355,53705
40368,53695
40368,53724
40369,53728
40374,53736
40376,53740
40369,53734
40372,53746
40365,53779
40375,53772
40369,53799
40391,53793
40379,53787
40386,53806
40365,53817
40385,53812
40400,53832
40392,53836
40385,53847
40380,53833
40387,53861
40394,53852
40401,53855
40404,53859
40389,53874
40408,53879
40402,53893
40409,53886
40394,53880
40409,53885
40422,53918
40404,53915
40423,53928
40399,53926
40394,53934
40411,53956
40428,53960
40416,53955
40422,53958
40419,53946
40404,53939
40389,53879
40381,53803
40335,53692
40299,53545
40273,53436
40259,53346
40233,53290
40224,53233
40219,53219
40209,53195
40224,53199
40204,53183
40213,53227
40221,53218
40221,53241
40230,53251
40248,53277
40257,53291
40260,53301
40249,53319
40255,53322
40257,53335
40257,53352
40285,53357
40271,53364
40278,53375
40296,53413
40289,53428
40305,53448
40321,53477
40301,53499
40305,53513
40313,53519
40295,53510
40296,53515
40299,53499
40293,53485
40296,53461
40288,53446
40295,53455
40284,53434
40280,53435
40280,53425
40288,53442
40288,53447
40291,53437
40296,53442
40294,53459
40287,53471
40304,53474
40300,53500
40296,53487
40292,53506
40294,53514
40311,53512
40312,53540
40319,53548
40311,53543
40311,53556
40307,53560
40311,53580
40326,53585
40324,53584
40320,53616
40332,53622
40322,53622
40335,53620
40338,53636
40338,53649
40329,53653
40347,53654
40335,53663
40346,53661
40343,53679
40354,53679
40358,53690
40343,53699
40339,53704
40337,53712
40345,53725
40349,53719
40359,53728
40365,53754
40337,53739
40353,53753
40354,53763
40363,53772
40367,53761
40352,53789
40365,53774
40381,53770
40363,53790
40370,53788
40357,53810
40364,53801
40377,53823
40376,53824
40379,53825
40378,53822
40370,53831
40384,53830
40374,53845
40366,53843
40373,53850
40381,53841
40387,53864
40385,53859
40377,53863
40378,53882
40389,53866
40386,53894
40393,53898
40401,53892
40386,53895
40391,53901
40396,53918
40389,53918
40398,53909
40374,53924
40387,53928
40395,53946
40390,53949
40399,53941
40392,53956
40394,53957
40388,53962
40394,53944
40384,53929
40372,53879
40328,53756
40295,53595
40237,53442
40219,53301
40183,53226
40179,53135
40167,53085
40149,53040
40160,53055
40142,53006
40165,53049
40160,53050
40164,53064
40174,53095
40168,53129
40170,53119
40179,53115
40193,53149
40195,53150
40211,53153
40171,53172
40204,53167
40190,53168
40206,53190
40203,53228
40211,53221
40227,53235
40231,53243
40211,53298
40235,53291
40224,53304
40234,53314
40226,53308
40235,53289
40218,53291
40218,53273
40222,53267
40230,53248
40217,53245
40195,53234
40160,53055
40196,53229
40214,53231
40220,53248
40207,53249
40226,53253
40230,53255
40217,53281
40229,53277
40219,53297
40216,53294
40242,53288
40231,53310
40234,53317
40253,53340
40238,53329
40244,53337
40237,53359
40246,53366
40251,53377
40266,53399
40255,53382
40258,53400
40261,53418
40245,53425
40260,53429
40272,53425
40264,53433
40264,53444
40258,53462
40273,53462
40264,53455
40280,53463
40265,53488
40265,53488
40273,53485
40271,53500
40269,53498
40272,53503
40269,53515
40280,53506
40280,53535
40265,53526
40265,53537
40283,53544
40278,53547
40292,53559
40271,53567
40290,53578
40291,53569
40283,53573
40291,53595
40283,53585
40294,53594
40287,53588
40294,53599
40298,53604
40293,53610
40292,53606
40286,53631
40300,53621
40298,53628
40295,53635
40293,53641
40292,53653
40299,53649
40308,53664
40312,53662
40309,53673
40304,53692
40314,53695
40318,53700
40312,53700
40323,53685
40309,53707
40316,53703
40325,53709
40330,53738
40317,53739
40321,53747
40326,53754
40321,53748
40322,53767
40332,53770
40323,53778
40336,53776
40338,53779
40305,53769
40302,53718
40275,53643
40245,53485
40193,53315
40153,53197
40120,53051
40095,52970
40083,52912
40076,52887
40075,52866
40064,52853
40077,52861
40062,52859
40074,52854
40084,52884
40080,52896
40087,52935
40102,52940
40098,52963
40118,52973
40107,52965
40127,52983
40123,52993
40108,52978
40111,53001
40121,53013
40134,53044
40129,53078
40149,53078
40161,53107
40145,53140
40168,53130
40168,53140
40158,53130
40140,53113
40145,53105
40144,53083
40131,53091
40151,53059
40135,53037
40121,53037
40132,53022
40125,53022
40127,53014
40145,53027
40122,53027
40124,53034
40123,53047
40118,53034
40113,53039
40146,53067
40134,53087
40151,53078
40139,53082
40147,53102
40161,53104
40137,53122
40143,53111
40164,53132
40152,53125
40159,53156
40152,53165
40158,53176
40170,53189
40156,53205
40172,53197
40172,53212
40173,53209
40180,53213
40181,53227
40171,53223
40184,53243
40172,53258
40184,53257
40179,53262
40192,53251
40198,53285
40196,53289
40189,53302
40194,53295
40192,53306
40192,53338
40191,53309
40206,53345
40195,53348
40208,53338
40197,53345
40205,53350
40205,53375
40202,53374
40218,53377
40219,53379
40213,53392
40198,53397
40211,53391
40220,53410
40223,53426
40223,53428
40213,53425
40211,53430
40236,53434
40221,53453
40223,53446
40218,53463
40229,53465
40227,53464
40219,53470
40222,53473
40224,53495
40240,53497
40239,53507
40240,53509
40242,53521
40260,53533
40228,53530
40260,53558
40251,53569
40255,53580
40262,53588
40261,53575
40249,53563
40236,53553
40232,53511
40203,53404
40143,53227
40108,53092
40067,52935
40045,52841
40013,52763
40009,52720
39998,52681
39990,52634
39989,52636
39999,52638
39975,52637
39983,52644
40001,52654
40002,52668
40009,52683
40007,52688
40023,52687
40037,52706
40012,52709
40012,52719
40027,52710
40034,52728
40034,52769
40032,52795
40026,52791
40049,52773
40057,52829
40055,52820
40066,52851
40065,52863
40070,52859
40056,52845
40048,52832
40061,52834
40065,52796
40056,52791
40031,52787
40002,52782
40003,52774
40011,52772
40017,52785
40023,52777
40047,52793
40038,52779
40031,52776
40039,52782
40035,52802
40040,52805
40043,52824
40056,52839
40039,52809
40046,52844
40038,52869
40056,52867
40057,52877
40052,52884
40069,52894
40046,52918
40070,52940
40064,52948
40080,52960
40068,52960
40084,52957
40090,52960
40092,52968
40091,52992
40075,53007
40082,53013
40100,53030
40084,53036
40102,53034
40113,53035
40098,53035
40095,53075
40093,53073
40104,53080
40121,53080
40108,53095
40113,53100
40102,53116
40114,53132
40123,53131
40141,53126
40120,53159
40113,53153
40123,53172
40117,53173
40142,53176
40134,53188
40135,53193
40126,53199
40122,53214
40129,53197
40121,53213
40141,53217
40131,53240
40149,53247
40153,53247
40150,53256
40146,53261
40135,53273
40148,53268
40159,53280
40165,53308
40164,53310
40166,53314
40160,53319
40159,53341
40161,53349
40170,53359
40171,53361
40180,53365
40185,53363
40170,53377
40184,53389
40176,53395
40191,53411
40189,53412
40190,53413
40188,53418
40187,53433
40188,53429
40194,53457
40183,53465
40198,53469
40204,53479
40199,53473
40188,53489
40199,53480
40170,53445
40166,53370
40146,53271
40081,53089
40033,52933
40004,52783
39948,52705
39945,52641
39939,52579
39927,52557
39904,52546
39920,52515
39929,52524
39921,52517
39940,52532
39933,52541
39935,52555
39940,52571
39929,52586
39944,52601
39944,52613
39953,52627
39966,52626
39963,52642
39963,52638
39957,52649
39960,52679
39985,52678
39982,52703
39983,52728
40001,52751
39995,52770
40000,52780
40007,52775
40001,52779
40004,52785
40002,52767
39991,52746
40002,52747
39987,52730
39975,52729
39972,52708
39982,52698
39992,52719
39978,52714
39971,52705
39972,52711
39974,52702
39982,52721
39981,52732
39995,52741
40005,52737
39997,52753
39995,52772
39982,52777
40000,52790
39994,52798
39989,52824
40006,52832
40019,52832
40010,52845
40013,52868
40014,52880
40004,52880
40033,52898
40033,52905
40022,52910
40029,52937
40040,52934
40027,52929
40052,52950
40029,52965
40050,52971
40053,53001
40050,52997
40040,53007
40046,53011
40066,53015
40065,53034
40062,53036
40067,53043
40066,53059
40071,53066
40069,53079
40078,53079
40081,53087
40094,53099
40072,53114
40084,53120
40079,53123
40069,53128
40086,53147
40084,53151
40085,53159
40092,53175
40094,53161
40085,53174
40088,53189
40122,53201
40102,53196
40095,53209
40100,53214
40107,53232
40112,53242
40092,53249
40122,53258
40119,53257
40125,53278
40121,53274
40121,53279
40117,53292
40114,53300
40129,53325
40136,53321
40130,53341
40129,53346
40159,53343
40138,53349
40148,53373
40139,53366
40143,53393
40152,53378
40148,53402
40144,53414
40148,53416
40164,53436
40161,53428
40173,53425
40157,53403
40150,53403
40152,53361
40107,53279
40060,53110
40017,52966
39970,52831
39932,52700
39921,52611
39913,52570
39925,52547
39890,52520
39897,52501
39905,52492
39884,52509
39869,52544
39902,52559
39904,52600
39927,52618
39931,52619
39947,52604
39935,52642
39943,52662
39965,52687
39959,52685
39951,52718
39957,52727
39978,52755
39989,52780
39981,52803
40008,52814
39979,52844
39975,52843
40150,53403
39997,52841
39985,52832
39985,52804
39988,52795
39976,52777
39965,52777
39970,52731
39965,52736
39976,52733
39975,52729
39961,52738
39956,52737
39971,52751
39961,52752
39979,52768
39967,52772
39973,52773
39979,52796
39969,52809
40000,52808
39983,52820
39994,52827
40001,52859
40011,52845
40021,52868
40023,52887
40001,52901
40020,52898
40035,52898
40019,52937
40030,52947
40026,52955
40032,52945
40035,52963
40032,52989
40053,52980
40040,52998
40049,53015
40040,53017
40056,53026
40049,53036
40059,53035
40055,53061
40054,53050
40054,53072
40074,53086
40060,53076
40077,53103
40059,53104
40065,53114
40078,53127
40063,53141
40080,53126
40087,53144
40074,53177
40095,53173
40088,53177
40086,53192
40101,53189
40092,53198
40087,53210
40099,53210
40104,53228
40094,53241
40106,53234
40102,53241
40103,53240
40114,53258
40107,53260
40120,53278
40121,53278
40120,53278
40109,53293
40110,53290
40123,53314
40126,53317
40135,53342
40136,53340
40131,53351
40133,53363
40147,53366
40138,53388
40135,53385
40147,53410
40140,53397
40155,53393
40135,53364
40126,53313
40077,53209
40031,53051
39975,52885
39940,52730
39914,52617
39890,52547
39877,52510
39857,52448
39863,52445
39855,52431
39859,52420
39858,52433
39870,52439
39888,52443
39882,52464
39890,52474
39883,52492
39896,52514
39901,52530
39891,52535
39888,52545
39907,52564
39910,52554
39916,52558
39919,52562
39912,52585
39930,52610
39942,52621
39952,52655
39965,52673
39952,52701
39953,52701
39957,52713
39954,52706
39955,52693
39964,52682
39944,52671
39941,52650
39942,52649
39926,52620
39945,52634
39934,52618
39927,52631
39916,52608
39942,52623
39936,52629
39946,52643
39953,52655
39954,52666
39946,52671
39969,52674
39949,52687
39962,52711
39972,52729
39979,52742
39978,52753
39970,52751
39991,52755
39995,52801
39997,52776
39993,52800
40008,52829
40017,52832
40017,52827
40011,52846
40015,52868
40024,52879
40009,52895
40029,52894
40030,52910
40032,52915
40012,52918
40032,52943
40048,52939
40040,52963
40049,52976
40028,52969
40043,52982
40048,52997
40045,52999
40059,53004
40056,53037
40050,53028
40059,53050
40060,53048
40071,53050
40067,53067
40077,53080
40070,53079
40085,53102
40079,53092
40085,53100
40085,53112
40087,53125
40096,53149
40091,53127
40087,53157
40085,53149
40104,53160
40108,53170
40111,53190
40107,53197
40111,53207
40118,53210
40117,53216
40116,53232
40122,53237
40121,53238
40137,53263
40134,53256
40138,53281
40143,53270
40133,53290
40146,53308
40135,53296
40148,53322
40143,53310
40139,53320
40145,53340
40147,53340
40166,53354
40161,53334
40169,53368
40167,53388
40172,53396
40160,53401
40165,53405
40162,53391
40155,53374
40129,53268
40089,53160
40021,52968
40001,52809
39936,52650
39920,52564
39898,52500
39894,52437
39882,52407
39880,52402
39873,52389
39884,52395
39888,52394
39889,52415
39871,52427
39897,52443
39910,52479
39925,52517
39928,52517
39947,52481
39936,52513
39945,52551
39947,52556
39952,52578
39955,52583
39956,52595
39977,52641
39985,52666
39984,52682
40024,52698
40005,52711
39972,52712
39968,52732
40005,52722
39999,52707
40009,52688
39976,52669
39985,52641
39985,52650
39979,52637
39979,52637
39972,52628
39974,52636
39981,52652
39985,52642
39981,52664
39991,52667
39987,52670
39995,52693
40015,52689
40000,52723
40006,52709
40022,52743
40026,52752
40030,52769
40045,52782
40025,52782
40038,52814
40049,52806
40062,52843
40055,52844
40075,52858
40074,52879
40072,52889
40074,52894
40073,52920
40073,52919
40087,52922
40087,52951
40090,52945
40096,52966
40099,52978
40099,52995
40112,52998
40113,53002
40097,52996
40103,53033
40114,53021
40114,53033
40116,53062
40127,53061
40139,53076
40133,53087
40132,53096
40134,53104
40129,53098
40148,53121
40146,53124
40147,53134
40153,53139
40150,53147
40154,53164
40157,53169
40150,53187
40149,53182
40167,53183
40162,53198
40154,53204
40171,53222
40183,53219
40167,53231
40178,53243
40175,53253
40178,53250
40183,53270
40189,53269
40189,53281
40203,53288
40182,53306
40198,53312
40206,53323
40194,53323
40188,53330
40212,53335
40208,53323
40212,53348
40215,53359
40208,53374
40227,53384
40221,53384
40224,53399
40222,53418
40232,53417
40234,53416
40235,53410
40225,53408
40221,53351
40174,53265
40145,53138
40090,52967
40049,52813
40013,52673
39989,52599
39979,52533
39969,52505
39971,52454
39965,52469
39968,52459
39960,52492
39985,52503
39990,52525
39983,52548
40016,52599
40021,52604
40032,52622
40032,52655
40049,52662
40044,52684
40048,52700
40060,52722
40067,52743
40081,52750
40071,52774
40076,52799
40095,52818
40116,52856
40117,52872
40112,52880
40121,52888
40116,52887
40114,52875
40117,52882
40099,52860
40106,52836
40105,52807
40099,52809
40079,52773
40086,52786
40070,52786
40095,52774
40083,52777
40102,52797
40095,52799
40091,52807
40100,52823
40113,52850
40122,52856
40111,52859
40122,52873
40131,52886
40124,52873
40134,52914
40145,52934
40131,52948
40138,52957
40152,52974
40155,52980
40159,53004
40167,52995
40164,53005
40170,53036
40175,53027
40178,53045
40188,53065
40192,53063
40185,53094
40203,53080
40190,53103
40200,53100
40199,53122
40217,53120
40212,53130
40215,53130
40220,53154
40219,53169
40211,53167
40219,53159
40233,53203
40214,53202
40227,53209
40241,53210
40236,53226
40240,53234
40237,53234
40231,53242
40247,53265
40238,53261
40248,53253
40266,53287
40268,53267
40245,53286
40257,53298
40253,53288
40256,53312
40259,53306
40259,53337
40263,53332
40275,53340
40258,53333
40267,53358
40263,53362
40284,53369
40269,53373
40280,53385
40269,53396
40300,53401
40299,53405
40288,53414
40269,53383
40244,53314
40223,53185
40174,53000
40128,52874
40095,52731
40059,52626
40042,52570
40041,52522
40028,52496
40021,52487
40030,52480
40049,52479
40032,52477
40052,52510
40052,52544
40063,52559
40072,52585
40087,52588
40072,52604
40085,52632
40103,52641
40086,52664
40100,52687
40105,52682
40110,52712
40098,52721
40126,52748
40135,52787
40148,52819
40168,52835
40178,52813
40160,52846
40163,52855
40163,52859
40152,52838
40165,52824
40159,52804
40148,52798
40155,52802
40139,52791
40177,52777
40149,52764
40126,52784
40049,52479
40146,52803
40142,52805
40173,52812
40169,52807
40171,52833
40183,52846
40203,52857
40184,52865
40190,52890
40189,52893
40199,52926
40202,52934
40213,52942
40209,52939
40211,52970
40217,52976
40227,52994
40219,53009
40235,53029
40222,53024
40233,53040
40249,53062
40236,53064
40262,53083
40252,53080
40256,53096
40269,53113
40270,53112
40256,53121
40257,53133
40265,53133
40270,53140
40275,53159
40278,53154
40286,53182
40284,53181
40274,53192
40280,53211
40301,53204
40292,53205
40281,53229
40295,53229
40300,53244
40305,53255
40298,53271
40296,53256
40303,53252
40310,53269
40305,53271
40310,53277
40315,53297
40319,53290
40311,53313
40316,53307
40317,53319
40320,53334
40316,53353
40340,53345
40337,53355
40336,53374
40346,53373
40344,53382
40343,53392
40356,53400
40332,53387
40341,53345
40312,53287
40246,53140
40215,52979
40188,52843
40145,52699
40120,52620
40091,52538
40093,52516
40080,52483
40094,52464
40078,52465
40083,52473
40098,52485
40105,52493
40103,52514
40118,52535
40121,52550
40116,52581
40142,52586
40144,52598
40157,52622
40156,52637
40151,52646
40163,52648
40167,52640
40171,52680
40180,52692
40182,52708
40182,52737
40205,52760
40200,52781
40201,52808
40206,52794
40208,52807
40207,52798
40207,52779
40203,52786
40199,52756
40180,52746
40186,52747
40205,52733
40189,52738
40194,52736
40201,52736
40202,52751
40202,52755
40214,52768
40222,52773
40221,52788
40221,52801
40233,52812
40240,52830
40240,52813
40251,52835
40247,52846
40238,52871
40265,52883
40250,52889
40260,52898
40263,52934
40272,52944
40257,52943
40255,52949
40285,52974
40280,52988
40289,53000
40295,53017
40296,53023
40292,53025
40300,53039
40299,53054
40322,53048
40309,53072
40309,53067
40312,53083
40319,53081
40317,53098
40320,53110
40316,53115
40326,53122
40332,53117
40339,53145
40336,53128
40338,53144
40327,53166
40343,53159
40341,53161
40339,53181
40349,53183
40364,53190
40352,53206
40358,53210
40351,53212
40366,53224
40363,53235
40367,53222
40368,53247
40366,53257
40372,53252
40368,53261
40359,53280
40368,53265
40385,53284
40376,53290
40390,53287
40382,53304
40383,53317
40390,53318
40390,53339
40405,53344
40395,53343
40401,53361
40405,53371
40398,53379
40397,53379
40407,53402
40413,53389
40404,53349
40376,53291
40337,53186
40294,53014
40267,52867
40217,52755
40187,52640
40162,52561
40155,52532
40166,52513
40165,52506
40168,52505
40164,52521
40170,52516
40161,52536
40169,52567
40187,52581
40207,52597
40207,52612
40219,52636
40208,52638
40220,52663
40232,52682
40229,52695
40219,52686
40249,52715
40240,52718
40242,52751
40259,52778
40268,52806
40265,52819
40278,52824
40274,52852
40263,52874
40271,52846
40273,52824
40261,52808
40267,52796
40273,52771
40257,52771
40247,52758
40249,52733
40265,52736
40257,52752
40262,52748
40257,52748
40265,52759
40265,52777
40255,52784
40288,52785
40289,52798
40264,52834
40285,52839
40292,52796
40298,52830
40300,52850
40311,52867
40297,52888
40319,52902
40319,52920
40301,52918
40323,52923
40328,52943
40353,52951
40341,52946
40315,52957
40311,52969
40334,52983
40329,52972
40330,52993
40329,53014
40349,53015
40349,53003
40354,53027
40350,53034
40370,53040
40347,53050
40358,53050
40361,53052
40360,53059
40373,53069
40368,53072
40370,53091
40377,53084
40385,53100
40377,53100
40363,53097
40357,53106
40386,53105
40375,53116
40380,53137
40374,53143
40400,53129
40375,53145
40378,53151
40387,53156
40388,53177
40391,53164
40401,53179
40401,53205
40404,53199
40387,53212
40401,53214
40409,53222
40412,53232
40408,53228
40393,53187
40351,53098
40314,52977
40294,52848
40248,52707
40209,52583
40199,52520
40182,52459
40168,52415
40163,52395
40179,52393
40169,52396
40162,52392
40177,52396
40174,52424
40163,52426
40174,52455
40201,52442
40178,52485
40196,52475
40194,52499
40195,52498
40218,52501
40215,52500
40221,52522
40225,52534
40225,52556
40233,52577
40239,52591
40237,52638
40253,52641
40250,52654
40239,52659
40258,52651
40255,52635
40242,52633
40245,52602
40238,52582
40230,52576
40235,52577
40220,52562
40234,52546
40215,52551
40241,52568
40223,52561
40233,52572
40234,52583
40233,52607
40242,52591
40255,52593
40235,52612
40259,52616
40259,52635
40265,52650
40256,52649
40273,52665
40267,52668
40268,52698
40262,52702
40286,52701
40271,52724
40287,52738
40289,52746
40289,52751
40299,52764
40290,52774
40282,52781
40295,52793
40295,52806
40314,52801
40316,52799
40305,52821
40319,52848
40313,52842
40318,52854
40314,52855
40322,52863
40324,52874
40326,52875
40337,52896
40339,52885
40351,52918
40342,52910
40346,52934
40338,52925
40353,52936
40342,52946
40353,52952
40342,52940
40342,52959
40352,52976
40362,52973
40359,52988
40363,52994
40375,52987
40356,52994
40371,53006
40367,53012
40357,53029
40372,53031
40365,53045
40376,53050
40382,53059
40394,53056
40390,53077
40377,53085
40391,53094
40391,53091
40401,53114
40399,53116
40392,53138
40398,53140
40410,53152
40408,53146
40373,53072
40336,52972
40301,52826
40258,52661
40209,52528
40171,52441
40147,52358
40148,52311
40143,52258
40132,52251
40124,52233
40136,52231
40136,52245
40144,52246
40147,52241
40151,52247
40147,52256
40152,52269
40142,52291
40139,52285
40151,52296
40149,52293
40166,52285
40145,52297
40154,52297
40149,52290
40165,52311
40159,52327
40183,52341
40168,52363
40185,52375
40181,52400
40194,52403
40189,52419
40176,52398
40177,52392
40179,52380
40176,52379
40175,52357
40163,52352
40166,52338
40183,52343
40164,52338
40169,52347
40169,52336
40165,52331
40186,52356
40163,52348
40179,52341
40186,52380
40198,52396
40192,52392
40197,52395
40198,52408
40179,52419
40199,52433
40205,52440
40207,52458
40205,52466
40209,52490
40215,52477
40234,52508
40226,52508
40229,52530
40230,52544
40216,52567
40246,52569
40257,52567
40243,52548
40247,52586
40257,52599
40260,52609
40245,52607
40247,52619
40253,52632
40251,52634
40262,52646
40276,52634
40272,52659
40272,52677
40256,52671
40278,52696
40274,52740
40290,52711
40277,52687
40271,52710
40285,52734
40294,52748
40300,52766
40296,52777
40299,52788
40302,52787
40306,52806
40316,52797
40338,52805
40323,52822
40308,52840
40316,52835
40291,52849
40292,52851
40314,52841
40326,52870
40319,52905
40328,52889
40339,52893
40339,52896
40338,52910
40335,52925
40353,52940
40342,52955
40346,52960
40352,52963
40353,52965
40353,52981
40380,52991
40388,52997
40348,53005
40371,53009
40381,53031
40379,53044
40377,53048
40380,53048
40380,53068
40382,53070
40381,53075
40411,53084
40403,53098
40402,53097
40383,53100
40383,53066
40362,53005
40317,52860
40265,52720
40215,52547
40183,52428
40158,52377
40160,52319
40143,52273
40135,52243
40124,52240
40117,52232
40138,52239
40146,52244
40135,52254
40150,52283
40162,52288
40157,52308
40172,52329
40162,52329
40172,52339
40167,52346
40189,52360
40188,52377
40190,52369
40197,52390
40213,52396
40192,52414
40206,52432
40217,52454
40212,52477
40208,52489
40218,52471
40233,52485
40211,52477
40221,52460
40218,52454
40208,52431
40214,52421
40196,52395
40197,52401
40194,52390
40193,52381
40197,52399
40200,52396
40176,52413
40198,52408
40202,52418
40204,52435
40201,52426
40198,52440
40199,52458
40207,52458
40208,52472
40213,52479
40218,52491
40220,52503
40248,52500
40232,52513
40202,52542
40224,52538
40245,52552
40235,52570
40245,52561
40247,52558
40240,52592
40239,52584
40255,52604
40260,52613
40254,52620
40259,52628
40274,52632
40261,52631
40261,52642
40267,52645
40283,52658
40264,52667
40278,52675
40273,52683
40295,52690
40291,52715
40284,52706
40297,52723
40287,52736
40307,52743
40296,52748
40306,52771
40312,52767
40309,52779
40307,52788
40317,52772
40315,52793
40324,52798
40302,52811
40313,52815
40328,52830
40324,52822
40316,52831
40329,52843
40331,52856
40336,52874
40339,52873
40344,52882
40351,52896
40342,52916
40357,52935
40364,52932
40350,52960
40357,52972
40367,52950
40363,52941
40346,52912
40307,52816
40269,52702
40226,52560
40205,52423
40151,52335
40136,52269
40130,52224
40124,52186
40125,52180
40111,52159
40112,52156
40136,52166
40119,52169
40117,52158
40119,52179
40129,52192
40120,52198
40126,52202
40152,52193
40148,52219
40139,52227
40149,52229
40151,52229
40152,52259
40158,52247
40148,52269
40166,52285
40161,52301
40163,52331
40171,52329
40175,52342
40195,52350
40174,52358
40187,52336
40174,52331
40179,52324
40159,52311
40172,52295
40162,52301
40163,52293
40171,52279
40162,52272
40173,52292
40165,52308
40168,52303
40182,52301
40174,52313
40170,52320
40169,52330
40162,52342
40191,52336
40199,52361
40190,52359
40184,52381
40212,52377
40198,52383
40218,52413
40201,52421
40210,52428
40216,52450
40242,52461
40224,52464
40233,52485
40236,52493
40231,52501
40256,52521
40240,52525
40246,52535
40224,52527
40251,52549
40243,52558
40257,52556
40255,52593
40259,52579
40259,52591
40273,52611
40268,52621
40279,52590
40286,52617
40273,52643
40282,52644
40277,52654
40286,52661
40279,52675
40283,52688
40297,52691
40286,52705
40323,52708
40301,52722
40302,52731
40305,52737
40296,52776
40320,52776
40310,52758
40318,52765
40316,52775
40330,52798
40332,52803
40338,52820
40331,52834
40341,52826
40326,52839
40342,52850
40348,52864
40381,52884
40355,52884
40355,52892
40322,52898
40337,52900
40342,52916
40350,52922
40360,52924
40379,52946
40378,52973
40389,52976
40382,52998
40387,53011
40394,53008
40391,53005
40381,53008
40386,53006
40366,52981
40336,52875
40313,52759
40248,52588
40213,52429
40189,52347
40163,52275
40142,52218
40154,52182
40127,52151
40137,52143
40144,52138
40118,52138
40136,52143
40145,52152
40131,52172
40148,52198
40155,52214
40155,52218
40173,52230
40156,52240
40168,52253
40183,52266
40153,52259
40164,52270
40169,52261
40182,52277
40181,52299
40194,52317
40187,52342
40202,52341
40206,52361
40208,52392
40208,52386
40203,52372
40191,52373
40201,52358
40210,52346
40194,52328
40192,52317
40189,52329
40188,52325
40194,52319
40199,52312
40206,52321
40192,52326
40189,52334
40193,52342
40196,52352
40215,52356
40219,52369
40222,52378
40217,52387
40217,52399
40216,52401
40223,52417
40223,52424
40232,52441
40234,52443
40232,52469
40233,52480
40232,52465
40255,52509
40255,52520
40268,52533
40255,52539
40254,52551
40252,52572
40267,52570
40273,52585
40268,52567
40276,52591
40283,52605
40291,52608
40277,52622
40290,52618
40284,52649
40293,52646
40286,52663
40291,52669
40296,52658
40293,52678
40324,52692
40301,52712
40327,52711
40311,52713
40318,52715
40312,52741
40333,52760
40326,52750
40338,52776
40327,52774
40342,52777
40352,52794
40343,52795
40336,52815
40355,52820
40332,52823
40336,52841
40337,52850
40347,52842
40358,52849
40363,52880
40352,52877
40364,52881
40353,52908
40388,52908
40379,52923
40376,52934
40377,52928
40378,52963
40380,52969
40372,52965
40379,52975
40380,52988
40384,52995
40395,53002
40394,53016
40389,53028
40389,53048
40405,53034
40413,53062
40401,53065
40405,53071
40421,53082
40433,53093
40425,53097
40417,53123
40433,53126
40432,53135
40436,53124
40429,53133
40426,53125
40412,53085
40387,53014
40340,52904
40300,52757
40253,52575
40207,52478
40208,52395
40193,52342
40179,52312
40172,52287
40188,52278
40177,52277
40207,52284
40191,52307
40186,52313
40198,52341
40212,52344
40215,52384
40214,52385
40235,52409
40243,52432
40236,52460
40236,52444
40230,52453
40256,52471
40256,52489
40252,52502
40257,52523
40277,52533
40275,52570
40281,52588
40305,52586
40284,52606
40290,52601
40271,52582
40285,52575
40263,52561
40258,52536
40258,52512
40254,52513
40251,52496
40251,52504
40247,52494
40247,52501
40255,52502
40276,52513
40263,52517
40273,52531
40272,52542
40275,52539
40291,52558
40289,52568
40280,52582
40283,52594
40294,52614
40291,52607
40296,52640
40291,52637
40314,52663
40316,52673
40307,52684
40310,52688
40320,52707
40329,52712
40328,52744
40328,52740
40335,52754
40327,52745
40332,52766
40341,52781
40355,52786
40346,52784
40339,52807
40357,52820
40355,52818
40360,52834
40360,52832
40349,52861
40368,52852
40374,52871
40353,52886
40377,52886
40382,52887
40389,52889
40371,52916
40382,52919
40372,52940
40375,52926
40381,52957
40392,52962
40388,52978
40365,52956
40401,53005
40404,52984
40408,52997
40415,53000
40403,53029
40406,53014
40408,53028
40400,53048
40413,53063
40433,53066
40410,53054
40419,53068
40403,53085
40357,52820
40408,53105
40423,53123
40444,53116
40438,53127
40441,53153
40428,53156
40429,53161
40439,53154
40455,53178
40448,53187
40444,53193
40442,53197
40453,53203
40461,53218
40462,53236
40463,53248
40458,53237
40466,53222
40440,53184
40412,53080
40368,52928
40323,52753
40254,52600
40234,52498
40213,52430
40218,52387
40186,52338
40211,52312
40186,52319
40191,52311
40195,52326
40206,52324
40211,52352
40202,52359
40221,52375
40212,52390
40221,52413
40225,52415
40242,52442
40240,52447
40255,52448
40237,52458
40244,52453
40250,52468
40236,52473
40253,52487
40249,52517
40275,52530
40274,52544
40282,52562
40274,52578
40268,52583
40280,52589
40287,52564
40278,52569
40267,52545
40275,52537
40255,52528
40263,52521
40248,52516
40262,52506
40253,52489
40256,52514
40260,52515
40256,52518
40270,52523
40269,52541
40259,52557
40273,52558
40286,52574
40300,52575
40286,52580
40272,52611
40289,52623
40290,52633
40300,52642
40291,52642
40310,52659
40322,52690
40315,52681
40326,52687
40307,52710
40327,52729
40329,52717
40322,52742
40308,52757
40326,52761
40329,52783
40345,52791
40353,52792
40345,52805
40333,52811
40355,52798
40356,52837
40338,52852
40358,52858
40363,52862
40374,52861
40364,52873
40362,52901
40384,52897
40366,52925
40387,52931
40391,52927
40387,52933
40393,52938
40380,52937
40377,52955
40389,52951
40396,52979
40393,52976
40400,52992
40393,53006
40406,53007
40410,53026
40422,53039
40411,53030
40409,53046
40397,53058
40415,53064
40414,53065
40415,53082
40432,53090
40424,53112
40431,53105
40422,53128
40432,53125
40431,53150
40433,53136
40437,53160
40440,53172
40445,53168
40462,53175
40467,53187
40443,53206
40456,53208
40455,53214
40448,53216
40468,53239
40450,53245
40463,53239
40470,53248
40480,53271
40466,53269
40476,53291
40487,53292
40476,53294
40479,53305
40476,53286
40466,53262
40437,53179
40395,53044
40351,52882
40287,52707
40258,52584
40235,52493
40210,52418
40218,52381
40208,52383
40191,52348
40177,52344
40188,52352
40214,52376
40219,52391
40222,52390
40229,52433
40235,52447
40237,52461
40255,52490
40251,52516
40260,52515
40269,52529
40259,52542
40267,52536
40272,52539
40274,52562
40278,52587
40296,52590
40292,52625
40310,52646
40304,52682
40301,52676
40322,52699
40312,52678
40304,52687
40308,52657
40304,52651
40314,52641
40287,52624
40293,52614
40292,52613
40277,52604
40286,52599
40290,52620
40312,52602
40296,52618
40299,52630
40308,52633
40306,52646
40310,52660
40321,52669
40319,52696
40311,52702
40328,52711
40321,52729
40332,52724
40331,52749
40334,52766
40322,52752
40353,52781
40343,52799
40353,52816
40373,52832
40369,52837
40373,52847
40353,52854
40359,52866
40381,52888
40363,52889
40367,52911
40387,52918
40387,52923
40388,52936
40390,52938
40395,52957
40396,52962
40396,52978
40401,52996
40409,52998
40393,52999
40409,53025
40418,53025
40321,52669
40416,53045
40423,53059
40414,53044
40424,53053
40423,53047
40429,53084
40431,53112
40436,53106
40436,53120
40451,53123
40439,53122
40457,53114
40455,53140
40453,53145
40458,53165
40443,53181
40409,53177
40447,53178
40466,53191
40450,53195
40472,53223
40460,53224
40470,53216
40468,53218
40485,53260
40460,53252
40483,53260
40488,53263
40485,53270
40485,53291
40474,53301
40499,53320
40495,53316
40487,53320
40484,53332
40501,53334
40507,53356
40496,53361
40513,53370
40512,53381
40505,53374
40512,53392
40516,53398
40523,53402
40504,53387
40495,53355
40467,53290
40453,53160
40388,53002
40338,52844
40302,52701
40286,52603
40267,52530
40238,52503
40239,52479
40247,52469
40253,52474
40244,52487
40259,52498
40280,52541
40273,52549
40294,52583
40300,52625
40297,52630
40313,52660
40328,52684
40338,52699
40323,52727
40335,52747
40348,52743
40344,52772
40358,52779
40358,52813
40367,52843
40374,52855
40379,52884
40388,52897
40392,52912
40385,52903
40377,52884
40399,52897
40378,52857
40378,52852
40376,52824
40358,52820
40365,52789
40345,52779
40345,52779
40347,52790
40350,52782
40343,52792
40355,52807
40364,52825
40379,52843
40374,52821
40373,52841
40399,52871
40384,52878
40380,52894
40394,52904
40403,52916
40392,52929
40394,52944
40401,52951
40422,52986
40414,52986
40417,52990
40417,53012
40429,53017
40427,53028
40435,53052
40428,53041
40444,53062
40436,53058
40448,53087
40444,53080
40447,53111
40436,53105
40455,53103
40461,53141
40450,53127
40448,53139
40458,53158
40468,53171
40444,53168
40469,53184
40454,53201
40467,53204
40477,53217
40473,53215
40481,53234
40484,53233
40483,53249
40486,53243
40483,53270
40474,53269
40500,53288
40508,53268
40507,53271
40499,53296
40501,53312
40507,53322
40522,53309
40504,53322
40504,53341
40507,53330
40510,53339
40519,53350
40514,53349
40514,53371
40520,53374
40516,53378
40526,53387
40529,53393
40526,53399
40530,53406
40530,53423
40549,53428
40530,53455
40538,53473
40543,53451
40543,53480
40544,53484
40552,53475
40550,53478
40537,53470
40505,53427
40496,53331
40446,53166
40399,53002
40341,52837
40317,52721
40288,52633
40282,52583
40258,52536
40249,52530
40264,52505
40259,52503
40267,52523
40278,52547
40283,52565
40302,52586
40306,52611
40307,52627
40321,52672
40306,52680
40337,52697
40337,52697
40331,52738
40341,52743
40352,52762
40355,52766
40363,52781
40375,52804
40377,52829
40382,52864
40393,52863
40382,52888
40396,52916
40414,52911
40387,52899
40380,52912
40384,52908
40382,52883
40385,52862
40378,52858
40359,52837
40360,52836
40363,52832
40390,52820
40365,52820
40373,52830
40367,52841
40382,52838
40372,52848
40381,52872
40387,52884
40388,52894
40405,52908
40412,52930
40410,52936
40410,52943
40420,52965
40420,52992
40410,52979
40432,52994
40429,53028
40432,53038
40429,53055
40440,53069
40447,53067
40445,53087
40448,53083
40452,53109
40459,53120
40455,53124
40461,53151
40459,53141
40460,53160
40465,53161
40466,53175
40469,53186
40473,53201
40474,53215
40512,53205
40473,53225
40485,53223
40474,53251
40500,53249
40491,53289
40499,53291
40497,53302
40509,53262
40513,53291
40505,53312
40502,53314
40510,53318
40517,53330
40515,53342
40509,53340
40507,53346
40535,53372
40526,53363
40524,53389
40511,53372
40509,53384
40516,53394
40533,53403
40534,53405
40543,53409
40525,53425
40530,53453
40540,53447
40535,53459
40547,53454
40555,53472
40542,53463
40543,53478
40554,53497
40563,53486
40558,53516
40560,53506
40553,53522
40557,53519
40555,53530
40562,53546
40575,53559
40572,53565
40566,53543
40553,53515
40503,53406
40490,53287
40401,53094
40380,52961
40360,52811
40324,52709
40302,52629
40292,52607
40280,52579
40287,52577
40285,52586
40301,52601
40310,52614
40310,52627
40321,52671
40328,52690
40350,52702
40343,52748
40348,52761
40373,52797
40367,52810
40367,52818
40384,52846
40386,52840
40388,52878
40395,52889
40394,52911
40417,52937
40406,52956
40426,52984
40429,52996
40437,53018
40424,53021
40437,53018
40431,53022
40428,53011
40426,53000
40431,52973
40416,52978
40416,52943
40394,52946
40416,52944
40412,52918
40413,52934
40420,52947
40425,52952
40424,52956
40419,52964
40424,52991
40426,53004
40433,53009
40443,53015
40443,53032
40461,53056
40471,53070
40456,53087
40447,53093
40467,53108
40460,53116
40466,53144
40479,53153
40479,53165
40487,53172
40489,53197
40489,53211
40486,53220
40507,53232
40500,53244
40506,53241
40509,53254
40519,53246
40516,53279
40517,53285
40513,53292
40500,53297
40524,53323
40510,53317
40512,53322
40512,53339
40515,53346
40519,53363
40522,53379
40541,53372
40537,53381
40541,53389
40536,53387
40537,53409
40542,53403
40539,53406
40551,53438
40525,53426
40544,53438
40547,53446
40557,53442
40553,53468
40568,53477
40552,53461
40556,53480
40572,53488
40566,53485
40566,53511
40561,53503
40573,53513
40572,53526
40560,53526
40571,53534
40571,53538
40577,53556
40579,53552
40573,53573
40578,53566
40575,53580
40575,53588
40574,53579
40580,53592
40585,53620
40594,53614
40603,53635
40585,53628
40593,53645
40593,53631
40590,53643
40587,53596
40572,53531
40524,53442
40481,53278
40439,53110
40399,52982
40385,52873
40350,52805
40334,52745
40325,52705
40339,52708
40338,52723
40344,52731
40348,52751
40359,52787
40386,52801
40385,52825
40382,52866
40411,52903
40421,52926
40435,52975
40446,52976
40436,53002
40447,53039
40452,53038
40459,53070
40469,53084
40475,53121
40479,53153
40474,53169
40485,53186
40491,53215
40496,53215
40498,53230
40498,53214
40503,53211
40493,53192
40472,53175
40468,53159
40490,53138
40466,53116
40461,53138
40482,53126
40460,53105
40450,53111
40476,53119
40467,53138
40482,53132
40480,53137
40487,53153
40487,53164
40488,53171
40493,53209
40492,53198
40510,53212
40513,53230
40512,53253
40502,53268
40509,53274
40511,53277
40512,53308
40524,53293
40530,53318
40526,53337
40544,53343
40531,53371
40536,53367
40546,53369
40538,53387
40549,53394
40535,53383
40553,53405
40558,53411
40552,53422
40557,53441
40553,53451
40554,53451
40559,53459
40562,53471
40567,53470
40572,53479
40563,53507
40585,53512
40571,53530
40584,53522
40583,53538
40589,53554
40575,53560
40588,53604
40602,53583
40594,53561
40587,53591
40599,53583
40602,53588
40604,53595
40594,53602
40588,53617
40602,53624
40583,53626
40606,53630
40613,53650
40610,53655
40608,53656
40582,53665
40584,53673
40587,53654
40611,53684
40617,53699
40610,53686
40603,53690
40614,53724
40636,53714
40608,53723
40633,53737
40612,53721
40610,53679
40557,53598
40542,53472
40496,53287
40447,53135
40424,53031
40404,52921
40375,52852
40363,52808
40355,52779
40365,52765
40371,52779
40368,52796
40373,52829
40381,52832
40391,52865
40411,52895
40423,52933
40421,52950
40429,52990
40447,53011
40441,53031
40445,53064
40455,53061
40451,53100
40465,53112
40474,53134
40478,53154
40489,53179
40497,53200
40499,53224
40507,53235
40522,53258
40508,53264
40502,53273
40499,53246
40502,53236
40492,53238
40494,53228
40482,53211
40490,53190
40472,53167
40473,53165
40480,53178
40500,53186
40472,53176
40497,53177
40502,53198
40486,53210
40491,53224
40507,53244
40497,53236
40513,53259
40511,53258
40513,53292
40525,53302
40534,53300
40525,53313
40539,53328
40535,53346
40528,53359
40535,53390
40546,53374
40535,53403
40558,53419
40543,53404
40560,53429
40547,53448
40550,53443
40552,53470
40550,53457
40544,53491
40562,53484
40559,53503
40580,53520
40577,53506
40558,53529
40569,53536
40576,53531
40572,53553
40577,53557
40579,53567
40580,53569
40569,53570
40594,53585
40588,53605
40585,53616
40590,53622
40582,53613
40597,53624
40591,53634
40603,53637
40604,53638
40596,53647
40611,53680
40603,53657
40604,53669
40604,53673
40615,53681
40597,53687
40616,53695
40618,53698
40603,53709
40611,53717
40597,53718
40621,53724
40619,53740
40613,53739
40634,53741
40630,53759
40609,53753
40635,53767
40620,53765
40611,53783
40613,53779
40619,53811
40622,53818
40624,53807
40624,53802
40626,53789
40606,53736
40576,53629
40534,53486
40478,53313
40444,53175
40414,53078
40393,52953
40370,52903
40368,52871
40361,52845
40363,52862
40369,52868
40380,52877
40388,52902
40400,52938
40396,52956
40415,52998
40428,53033
40428,53049
40449,53077
40454,53106
40476,53127
40484,53153
40489,53167
40488,53174
40498,53198
40493,53221
40500,53232
40502,53271
40501,53283
40524,53295
40519,53326
40521,53346
40539,53341
40513,53353
40512,53345
40514,53340
40522,53313
40512,53312
40498,53308
40497,53282
40501,53266
40497,53254
40486,53264
40486,53258
40476,53272
40489,53268
40497,53274
40516,53294
40502,53311
40495,53316
40510,53330
40511,53345
40519,53359
40506,53360
40525,53370
40526,53402
40528,53408
40531,53418
40544,53428
40548,53438
40537,53460
40555,53486
40566,53484
40562,53499
40555,53514
40564,53522
40562,53525
40554,53533
40566,53547
40563,53560
40574,53562
40564,53571
40570,53569
40587,53596
40565,53601
40584,53611
40585,53624
40581,53626
40590,53629
40584,53639
40588,53643
40593,53655
40581,53656
40588,53684
40616,53672
40586,53692
40601,53696
40595,53697
40585,53690
40610,53712
40599,53726
40600,53741
40609,53721
40604,53754
40607,53745
40605,53749
40609,53765
40614,53776
40626,53777
40619,53785
40609,53769
40624,53825
40621,53819
40614,53816
40613,53776
40620,53819
40621,53805
40621,53833
40632,53849
40622,53849
40629,53850
40621,53835
40632,53877
40651,53888
40667,53868
40639,53895
40621,53897
40599,53887
40601,53696
40590,53782
40568,53666
40506,53506
40472,53334
40436,53212
40424,53122
40392,53023
40376,52988
40377,52965
40384,52963
40385,52962
40394,52994
40425,53014
40419,53021
40431,53049
40436,53080
40449,53136
40469,53149
40472,53200
40473,53230
40480,53265
40483,53275
40479,53289
40511,53292
40506,53342
40514,53350
40510,53379
40515,53403
40530,53426
40540,53441
40548,53458
40546,53483
40541,53488
40523,53484
40541,53469
40528,53459
40526,53450
40517,53426
40516,53421
40497,53415
40510,53406
40509,53394
40501,53388
40501,53394
40506,53391
40521,53395
40526,53404
40515,53435
40518,53416
40510,53440
40524,53451
40531,53467
40533,53466
40544,53472
40537,53498
40532,53510
40552,53515
40541,53533
40547,53526
40546,53553
40545,53568
40543,53579
40556,53592
40556,53599
40575,53622
40555,53619
40562,53624
40568,53625
40563,53639
40581,53650
40580,53651
40579,53674
40577,53660
40596,53695
40582,53700
40582,53698
40569,53720
40582,53727
40577,53730
40587,53730
40587,53747
40574,53737
40596,53747
40578,53752
40608,53768
40612,53759
40596,53777
40604,53787
40606,53786
40594,53797
40613,53807
40602,53812
40587,53811
40609,53812
40612,53817
40615,53831
40607,53836
40605,53848
40612,53841
40606,53844
40613,53856
40612,53881
40625,53878
40609,53880
40605,53881
40612,53895
40617,53901
40613,53895
40614,53915
40633,53916
40629,53926
40619,53915
40605,53898
40611,53874
40572,53806
40548,53689
40507,53548
40471,53398
40431,53275
40422,53199
40389,53109
40390,53071
40396,53047
40374,53028
40392,53041
40388,53066
40400,53080
40413,53115
40425,53151
40444,53195
40456,53235
40463,53250
40471,53304
40473,53317
40494,53338
40491,53388
40495,53391
40499,53403
40500,53424
40504,53445
40528,53476
40531,53512
40524,53505
40546,53531
40556,53550
40541,53565
40531,53563
40536,53566
40538,53557
40536,53535
40545,53534
40523,53524
40517,53502
40507,53494
40511,53474
40521,53482
40516,53467
40506,53468
40515,53475
40502,53477
40522,53486
40507,53487
40514,53509
40522,53537
40523,53539
40534,53537
40530,53558
40528,53575
40536,53579
40542,53585
40549,53606
40544,53632
40525,53628
40543,53633
40547,53658
40560,53647
40580,53675
40559,53689
40584,53686
40562,53711
40565,53724
40565,53728
40572,53737
40578,53718
40573,53749
40578,53750
40578,53763
40562,53749
40581,53769
40585,53777
40582,53789
40569,53800
40582,53802
40598,53818
40580,53819
40577,53820
40592,53826
40579,53833
40591,53836
40590,53856
40588,53876
40597,53872
40593,53880
40591,53865
40603,53882
40596,53891
40601,53881
40608,53906
40607,53919
40601,53917
40601,53915
40611,53920
40611,53929
40601,53934
40595,53927
40598,53935
40603,53941
40608,53931
40606,53960
40621,53964
40608,53969
40608,53979
40608,53971
40625,53978
40615,53969
40608,53942
40569,53871
40579,53749
40506,53603
40458,53436
40418,53325
40400,53252
40378,53123
40373,53088
40387,53061
40383,53034
40376,53099
40383,53100
40393,53151
40416,53179
40414,53191
40425,53228
40438,53252
40454,53292
40475,53315
40498,53314
40464,53347
40463,53371
40603,53941
40448,53409
40478,53400
40474,53425
40483,53452
40507,53486
40504,53512
40507,53532
40507,53545
40523,53550
40517,53552
40528,53538
40518,53552
40514,53527
40505,53522
40501,53509
40493,53493
40482,53488
40482,53475
40491,53476
40494,53461
40488,53465
40493,53478
40487,53478
40496,53493
40496,53505
40499,53510
40497,53516
40506,53538
40512,53553
40516,53559
40517,53581
40516,53579
40520,53600
40528,53610
40523,53634
40518,53638
40521,53640
40519,53658
40536,53669
40545,53681
40538,53688
40534,53704
40539,53711
40543,53712
40541,53733
40549,53732
40532,53733
40542,53748
40557,53751
40551,53774
40566,53769
40553,53776
40564,53786
40572,53797
40571,53807
40553,53811
40547,53798
40565,53834
40574,53822
40554,53848
40575,53840
40576,53861
40576,53840
40575,53839
40573,53865
40576,53863
40581,53868
40579,53880
40576,53872
40588,53895
40577,53907
40584,53898
40581,53918
40584,53914
40593,53920
40585,53928
40574,53941
40582,53947
40584,53948
40585,53955
40587,53962
40577,53954
40580,53962
40593,53981
40582,53976
40601,53990
40608,53989
40604,53993
40607,53994
40584,54007
40595,54006
40585,54002
40576,53937
40555,53883
40524,53791
40477,53630
40433,53476
40410,53346
40374,53260
40377,53191
40365,53154
40373,53139
40363,53116
40356,53127
40370,53141
40388,53180
40410,53186
40401,53221
40403,53275
40436,53286
40431,53330
40443,53355
40449,53357
40446,53386
40442,53403
40459,53428
40473,53458
40473,53463
40472,53484
40488,53498
40490,53515
40489,53545
40510,53561
40492,53580
40513,53579
40503,53603
40521,53596
40497,53612
40490,53581
40493,53581
40483,53567
40495,53560
40480,53555
40480,53535
40484,53542
40473,53537
40490,53530
40468,53516
40483,53539
40472,53537
40491,53544
40470,53582
40490,53574
40484,53584
40506,53605
40492,53600
40503,53613
40517,53619
40493,53650
40527,53648
40513,53659
40508,53678
40512,53682
40501,53699
40512,53706
40523,53717
40521,53736
40532,53740
40527,53738
40533,53751
40531,53767
40529,53759
40522,53785
40527,53779
40546,53785
40545,53805
40549,53813
40553,53818
40546,53830
40548,53839
40557,53837
40538,53848
40554,53871
40554,53857
40569,53875
40555,53862
40555,53880
40551,53878
40562,53894
40546,53904
40558,53903
40559,53917
40551,53925
40569,53928
40575,53937
40563,53943
40567,53938
40571,53940
40566,53953
40564,53956
40574,53958
40563,53964
40568,53974
40557,53968
40577,53972
40576,54002
40575,53997
40567,53994
40578,54005
40583,54007
40586,54035
40573,54026
40583,54027
40568,54020
40585,54065
40580,54028
40580,54027
40567,53991
40559,53934
40511,53833
40487,53701
40431,53551
40416,53420
40396,53339
40379,53283
40377,53218
40356,53208
40358,53210
40378,53191
40386,53241
40383,53253
40411,53297
40399,53314
40421,53345
40429,53368
40422,53402
40448,53441
40449,53463
40483,53476
40471,53511
40478,53530
40471,53542
40469,53578
40492,53613
40502,53605
40504,53639
40504,53656
40508,53692
40509,53692
40506,53703
40502,53695
40489,53696
40518,53669
40508,53668
40521,53663
40514,53643
40480,53623
40474,53604
40446,53615
40462,53602
40477,53608
40487,53622
40483,53622
40496,53625
40486,53628
40487,53636
40475,53648
40501,53662
40498,53674
40510,53699
40503,53711
40491,53717
40502,53728
40511,53733
40512,53733
40510,53748
40511,53763
40501,53779
40529,53770
40529,53780
40511,53799
40519,53812
40523,53812
40529,53815
40529,53824
40539,53826
40526,53861
40538,53867
40530,53856
40554,53866
40537,53890
40533,53886
40547,53884
40550,53897
40553,53891
40543,53921
40537,53908
40554,53920
40544,53937
40539,53933
40548,53936
40556,53943
40559,53955
40554,53960
40532,53957
40568,53976
40564,53963
40547,53972
40569,53991
40548,53998
40548,53994
40555,54008
40561,54013
40560,54007
40569,54032
40572,54020
40556,54017
40565,54029
40574,54062
40558,54058
40582,54065
40571,54063
40567,54062
40555,54037
40544,54022
40542,53950
40490,53851
40470,53707
40417,53561
40396,53425
40359,53361
40348,53284
40330,53226
40355,53213
40354,53206
40349,53214
40362,53224
40371,53245
40381,53276
40369,53315
40377,53325
40415,53360
40412,53389
40425,53408
40425,53446
40432,53440
40420,53459
40435,53471
40443,53496
40434,53527
40449,53528
40453,53552
40473,53576
40472,53593
40469,53620
40476,53643
40489,53651
40477,53656
40480,53659
40477,53660
40475,53663
40466,53647
40472,53631
40453,53625
40468,53613
40450,53594
40451,53586
40442,53598
40463,53601
40447,53581
40457,53593
40461,53598
40455,53617
40459,53615
40468,53624
40457,53638
40464,53665
40464,53655
40462,53674
40471,53675
40477,53681
40488,53716
40491,53710
40480,53716
40481,53740
40492,53741
40490,53763
40488,53770
40498,53781
40485,53799
40494,53803
40508,53818
40511,53824
40505,53822
40500,53829
40500,53836
40508,53836
40505,53838
40508,53858
40512,53864
40499,53872
40515,53873
40506,53891
40504,53888
40502,53893
40517,53914
40537,53913
40526,53915
40523,53920
40518,53934
40527,53940
40527,53943
40533,53970
40534,53966
40524,53951
40529,53979
40537,53975
40525,53993
40534,53988
40526,53984
40548,53995
40528,54007
40542,54007
40551,54009
40532,54006
40532,54023
40533,54036
40544,54032
40542,54032
40543,54051
40543,54044
40549,54067
40553,54068
40551,54067
40540,54076
40532,54080
40536,54060
40531,54057
40520,53973
40477,53878
40448,53775
40413,53608
40367,53468
40353,53372
40330,53310
40337,53246
40346,53228
40325,53218
40322,53216
40325,53239
40350,53258
40342,53278
40341,53284
40376,53339
40380,53354
40378,53366
40389,53405
40387,53420
40393,53435
40407,53449
40421,53465
40420,53471
40419,53496
40424,53521
40426,53535
40442,53560
40450,53572
40451,53618
40445,53622
40451,53655
40449,53651
40465,53655
40442,53656
40439,53677
40448,53642
40436,53628
40436,53602
40422,53586
40431,53583
40438,53573
40433,53573
40430,53567
40429,53589
40425,53591
40416,53594
40429,53596
40433,53604
40451,53602
40419,53629
40437,53634
40442,53650
40448,53688
40443,53685
40442,53659
40451,53672
40460,53706
40453,53719
40452,53733
40455,53733
40477,53748
40445,53763
40475,53772
40464,53764
40501,53788
40487,53796
40450,53811
40448,53642
40473,53831
40474,53840
40475,53822
40483,53851
40494,53875
40497,53863
40494,53864
40487,53869
40502,53871
40480,53890
40496,53886
40489,53900
40507,53920
40497,53906
40502,53933
40509,53927
40513,53928
40512,53955
40496,53950
40497,53955
40505,53960
40502,53978
40508,53978
40512,53981
40530,53991
40515,53983
40502,53995
40518,54004
40520,54004
40520,54010
40525,54023
40532,54025
40515,54030
40524,54030
40527,54044
40527,54051
40511,54040
40516,54051
40527,54063
40527,54069
40516,54069
40520,54075
40518,54081
40524,54104
40518,54108
40500,54086
40501,54064
40489,54002
40464,53893
40427,53768
40394,53617
40375,53488
40344,53391
40312,53330
40314,53283
40316,53253
40307,53244
40319,53267
40327,53266
40333,53295
40330,53308
40340,53316
40349,53361
40346,53391
40365,53411
40385,53430
40385,53457
40386,53480
40392,53497
40391,53513
40404,53511
40413,53535
40409,53558
40403,53582
40421,53608
40427,53624
40444,53658
40436,53672
40424,53677
40451,53672
40440,53684
40440,53689
40428,53653
40432,53651
40442,53642
40425,53635
40414,53607
40416,53600
40398,53613
40404,53612
40395,53590
40410,53606
40419,53610
40417,53616
40406,53612
40415,53629
40412,53650
40421,53639
40417,53670
40419,53661
40425,53683
40427,53687
40441,53694
40438,53716
40428,53723
40435,53723
40440,53728
40428,53751
40446,53755
40452,53769
40439,53787
40453,53792
40454,53783
40463,53802
40450,53812
40477,53808
40448,53825
40462,53827
40467,53844
40463,53822
40478,53862
40478,53854
40472,53878
40468,53874
40473,53879
40477,53900
40479,53900
40474,53892
40487,53905
40477,53911
40466,53919
40485,53925
40475,53924
40489,53948
40476,53955
40461,53927
40479,53966
40489,53943
40474,53953
40488,53972
40471,53974
40486,53969
40490,53983
40474,53985
40489,53986
40481,53984
40499,53985
40486,54002
40491,53998
40497,54023
40499,54016
40501,54042
40499,54035
40506,54052
40501,54042
40508,54062
40495,54044
40496,54070
40497,54063
40500,54056
40492,54023
40459,53951
40437,53875
40400,53751
40361,53602
40336,53464
40329,53383
40296,53341
40295,53290
40289,53271
40298,53253
40301,53272
40300,53273
40311,53305
40319,53313
40329,53345
40332,53364
40352,53400
40336,53417
40343,53442
40360,53446
40359,53492
40377,53515
40371,53525
40375,53518
40377,53553
40385,53579
40412,53587
40413,53607
40403,53644
40432,53670
40406,53684
40420,53686
40396,53672
40417,53668
40422,53679
40402,53663
40403,53648
40395,53623
40389,53628
40393,53607
40395,53593
40382,53593
40384,53586
40386,53597
40377,53587
40388,53608
40393,53602
40384,53610
40391,53623
40395,53634
40398,53656
40403,53678
40423,53657
40403,53671
40405,53694
40407,53729
40408,53710
40426,53713
40438,53739
40410,53741
40429,53762
40426,53764
40435,53774
40430,53782
40436,53793
40422,53795
40430,53800
40428,53818
40440,53822
40445,53817
40412,53833
40459,53825
40444,53849
40443,53888
40430,53894
40448,53834
40449,53850
40450,53874
40462,53883
40452,53892
40461,53902
40458,53907
40452,53914
40459,53925
40462,53932
40474,53944
40460,53925
40445,53949
40445,53944
40452,53961
40449,53961
40459,53965
40484,53980
40456,53981
40452,53977
40455,54000
40470,53991
40474,53999
40479,53998
40458,54011
40470,54022
40455,54013
40475,54043
40483,54037
40481,54033
40480,54046
40471,54054
40486,54044
40474,54029
40463,54000
40450,53956
40416,53865
40369,53716
40321,53583
40307,53434
40302,53357
40278,53300
40277,53263
40253,53234
40248,53206
40271,53226
40270,53230
40278,53245
40278,53273
40291,53293
40308,53309
40313,53330
40326,53341
40311,53368
40314,53390
40323,53406
40323,53433
40339,53444
40346,53431
40343,53445
40349,53469
40359,53498
40363,53512
40386,53543
40369,53541
40378,53573
40385,53600
40380,53599
40382,53596
40384,53585
40375,53598
40363,53567
40372,53557
40366,53537
40370,53550
40348,53521
40365,53520
40360,53523
40354,53529
40340,53531
40360,53538
40366,53515
40366,53541
40360,53542
40360,53544
40371,53571
40379,53585
40363,53605
40366,53596
40367,53618
40386,53608
40377,53614
40388,53635
40382,53635
40398,53660
40390,53668
40389,53679
40400,53706
40387,53710
40402,53719
40382,53700
40397,53745
40401,53740
40402,53728
40410,53761
40409,53759
40410,53782
40400,53766
40407,53773
40411,53803
40413,53783
40414,53811
40413,53806
40422,53809
40413,53836
40398,53830
40430,53854
40414,53856
40423,53861
40429,53853
40420,53870
40434,53867
40435,53890
40427,53886
40425,53887
40427,53897
40439,53897
40428,53910
40433,53909
40425,53942
40431,53913
40445,53931
40441,53945
40446,53939
40450,53952
40440,53969
40435,53977
40443,53971
40442,53957
40445,53973
40443,53986
40444,53992
40433,53979
40449,53985
40451,53991
40450,54003
40453,54028
40456,54030
40456,54033
40464,54035
40466,54054
40444,54042
40466,54060
40431,54044
40452,53997
40418,53948
40398,53829
40359,53696
40307,53550
40282,53431
40272,53338
40243,53282
40236,53258
40257,53215
40239,53212
40242,53212
40251,53216
40247,53242
40274,53269
40284,53293
40273,53301
40280,53327
40289,53361
40307,53367
40307,53391
40321,53418
40312,53418
40308,53441
40330,53452
40323,53467
40330,53481
40326,53507
40352,53527
40367,53560
40358,53587
40367,53599
40354,53607
40364,53593
40360,53616
40338,53608
40357,53602
40351,53572
40348,53584
40338,53563
40352,53529
40338,53537
40328,53525
40330,53523
40342,53535
40330,53542
40338,53537
40328,53543
40340,53552
40346,53554
40334,53568
40363,53574
40356,53589
40349,53609
40363,53611
40347,53624
40359,53615
40362,53631
40359,53644
40365,53654
40363,53665
40384,53667
40372,53680
40379,53696
40379,53701
40383,53707
40378,53735
40379,53745
40386,53724
40385,53752
40382,53762
40384,53767
40387,53775
40395,53777
40390,53799
40406,53794
40384,53819
40392,53805
40405,53807
40399,53819
40379,53820
40398,53826
40403,53850
40405,53848
40410,53856
40405,53851
40396,53871
40403,53870
40401,53895
40397,53876
40395,53900
40415,53894
40411,53907
40400,53896
40400,53938
40410,53950
40416,53928
40420,53905
40420,53916
40416,53934
40412,53947
40412,53951
40425,53948
40427,53967
40426,53979
40429,53979
40438,53982
40451,53991
40437,53993
40409,54000
40434,53995
40416,54018
40442,54027
40429,54012
40428,54021
40409,54002
40412,53955
40389,53930
40365,53800
40323,53684
40290,53533
40267,53417
40242,53356
40235,53303
40218,53238
40233,53218
40227,53236
40223,53227
40216,53235
40246,53273
40259,53283
40256,53315
40277,53340
40274,53374
40296,53398
40278,53412
40292,53421
40303,53448
40315,53461
40310,53489
40309,53489
40311,53508
40335,53535
40342,53559
40331,53574
40336,53620
40348,53656
40352,53618
40347,53636
40348,53630
40351,53640
40337,53617
40338,53596
40334,53578
40321,53579
40325,53575
40335,53557
40322,53547
40313,53543
40304,53539
40314,53554
40309,53550
40327,53554
40322,53567
40316,53573
40324,53581
40339,53594
40334,53599
40333,53621
40332,53624
40328,53629
40341,53640
40341,53661
40352,53662
40352,53670
40363,53673
40355,53693
40360,53713
40357,53710
40350,53709
40350,53721
40357,53744
40367,53742
40375,53754
40362,53764
40372,53761
40381,53788
40376,53781
40375,53801
40376,53802
40380,53818
40378,53809
40374,53832
40380,53826
40360,53833
40375,53845
40393,53863
40388,53866
40381,53861
40393,53883
40377,53874
40397,53887
40388,53877
40402,53883
40392,53907
40398,53904
40393,53920
40393,53912
40394,53911
40397,53919
40400,53941
40397,53936
40400,53933
40398,53944
40397,53950
40400,53938
40399,53965
40400,53970
40400,53963
40418,53987
40423,54003
40411,53988
40419,54009
40415,54006
40425,54005
40403,54005
40390,53956
40383,53891
40340,53787
40315,53648
40264,53494
40232,53388
40218,53310
40219,53252
40196,53203
40194,53168
40200,53171
40198,53189
40207,53180
40192,53195
40214,53210
40221,53233
40230,53269
40233,53274
40238,53288
40247,53317
40246,53327
40254,53343
40284,53346
40266,53365
40269,53365
40281,53382
40278,53397
40285,53424
40291,53447
40295,53478
40305,53505
40305,53510
40307,53530
40321,53530
40296,53551
40318,53537
40302,53522
40305,53514
40307,53521
40282,53489
40289,53483
40296,53492
40271,53465
40285,53463
40278,53470
40285,53460
40291,53468
40273,53477
40283,53478
40294,53499
40289,53496
40293,53520
40282,53511
40293,53536
40301,53527
40300,53536
40312,53562
40300,53561
40306,53565
40310,53593
40307,53605
40317,53610
40327,53622
40318,53635
40331,53644
40315,53638
40331,53668
40336,53670
40327,53684
40332,53687
40346,53697
40347,53702
40329,53707
40331,53714
40340,53728
40337,53743
40337,53737
40342,53761
40356,53745
40363,53762
40343,53788
40350,53788
40369,53788
40346,53813
40372,53786
40341,53827
40370,53806
40362,53836
40371,53832
40378,53836
40350,53857
40358,53853
40363,53852
40358,53862
40364,53860
40369,53880
40364,53886
40366,53885
40381,53888
40365,53885
40365,53919
40374,53915
40381,53897
40385,53912
40375,53925
40374,53919
40371,53933
40372,53919
40374,53928
40392,53939
40391,53949
40387,53944
40380,53968
40390,53985
40390,53984
40366,53981
40401,53992
40384,53976
40385,53970
40356,53912
40289,53606
40243,53471
40214,53356
40199,53293
40186,53226
40165,53179
40164,53146
40164,53126
40186,53125
40171,53156
40193,53181
40193,53199
40169,53215
40177,53230
40226,53243
40214,53263
40223,53287
40242,53306
40237,53330
40239,53353
40240,53373
40243,53358
40255,53394
40266,53407
40278,53417
40266,53445
40283,53470
40265,53496
40294,53522
40284,53529
40281,53543
40285,53544
40278,53534
40284,53535
40287,53511
40283,53488
40278,53494
40260,53478
40254,53466
40263,53463
40271,53454
40266,53460
40256,53469
40278,53467
40270,53474
40262,53481
40272,53484
40274,53506
40283,53515
40279,53516
40279,53535
40289,53543
40297,53545
40302,53565
40302,53572
40304,53586
40304,53600
40306,53603
40312,53627
40321,53625
40315,53635
40320,53654
40304,53672
40327,53668
40306,53689
40313,53685
40324,53716
40328,53697
40324,53717
40326,53725
40330,53748
40321,53743
40335,53731
40348,53760
40335,53770
40338,53775
40333,53773
40339,53781
40340,53789
40360,53808
40348,53813
40342,53810
40347,53817
40348,53824
40349,53832
40344,53837
40354,53851
40347,53848
40364,53843
40364,53855
40342,53873
40363,53877
40371,53880
40359,53889
40362,53896
40367,53899
40372,53909
40360,53903
40375,53914
40370,53916
40371,53918
40362,53932
40369,53924
40373,53935
40379,53945
40381,53966
40364,53963
40365,53969
40373,53980
40370,53998
40379,53979
40389,53984
40373,53976
40362,53976
40335,53894
40333,53787
40267,53663
40245,53531
40220,53398
40186,53328
40184,53268
40166,53221
40164,53185
40167,53173
40189,53193
40189,53205
40178,53229
40205,53255
40212,53289
40218,53302
40218,53316
40233,53349
40242,53377
40242,53396
40238,53416
40260,53439
40251,53463
40257,53465
40273,53486
40265,53501
40283,53516
40284,53569
40298,53567
40294,53609
40299,53621
40300,53613
40307,53638
40306,53632
40279,53599
40291,53576
40283,53576
40278,53577
40275,53557
40284,53547
40264,53534
40281,53526
40262,53543
40270,53528
40272,53521
40279,53552
40272,53534
40279,53553
40286,53571
40281,53578
40284,53595
40294,53586
40304,53608
40298,53620
40292,53614
40295,53628
40314,53651
40311,53659
40315,53663
40323,53665
40312,53675
40311,53698
40332,53715
40312,53719
40316,53723
40325,53737
40321,53729
40328,53749
40327,53764
40328,53772
40326,53798
40332,53794
40326,53794
40322,53789
40339,53807
40351,53805
40345,53812
40342,53823
40340,53839
40341,53841
40353,53861
40343,53866
40339,53863
40344,53871
40345,53859
40349,53878
40356,53894
40346,53894
40341,53892
40347,53914
40346,53904
40336,53909
40344,53933
40369,53920
40362,53936
40351,53938
40349,53944
40360,53941
40376,53945
40363,53950
40381,53973
40371,53975
40366,53991
40382,53983
40368,53979
40343,53913
40318,53846
40304,53740
40258,53586
40223,53451
40204,53354
40167,53260
40155,53212
40157,53176
40152,53164
40160,53137
40150,53134
40165,53152
40165,53186
40183,53197
40185,53237
40185,53232
40193,53263
40207,53295
40215,53305
40213,53316
40241,53320
40224,53366
40234,53345
40232,53372
40229,53404
40363,53950
40249,53446
40255,53483
40261,53484
40269,53484
40269,53509
40255,53530
40279,53540
40270,53534
40274,53520
40259,53513
40255,53503
40259,53499
40283,53479
40248,53476
40241,53455
40230,53469
40150,53134
40241,53463
40243,53477
40244,53484
40252,53499
40256,53502
40245,53504
40276,53516
40271,53520
40269,53537
40267,53548
40272,53541
40279,53566
40284,53595
40295,53590
40283,53596
40281,53610
40293,53617
40300,53640
40297,53631
40290,53644
40300,53682
40295,53678
40310,53685
40310,53703
40306,53704
40295,53719
40319,53717
40310,53715
40297,53747
40325,53742
40321,53759
40313,53762
40307,53779
40315,53770
40322,53781
40322,53797
40326,53805
40320,53809
40333,53816
40330,53833
40325,53833
40329,53837
40331,53849
40340,53865
40321,53840
40324,53860
40334,53863
40342,53880
40331,53873
40345,53878
40344,53898
40336,53900
40341,53906
40343,53905
40348,53936
40344,53918
40353,53926
40352,53913
40350,53931
40349,53942
40368,53947
40366,53951
40354,53946
40353,53984
40352,53988
40355,53979
40356,53981
40375,53996
40366,53998
40363,54008
40369,54007
40357,54001
40359,53977
40338,53921
40309,53815
40280,53684
40232,53531
40196,53406
40182,53319
40151,53255
40146,53212
40141,53165
40150,53174
40146,53175
40137,53161
40160,53169
40157,53200
40180,53224
40180,53257
40192,53272
40187,53291
40197,53310
40191,53341
40203,53363
40217,53365
40223,53392
40219,53396
40240,53429
40229,53435
40243,53447
40252,53487
40255,53516
40262,53526
40279,53539
40250,53552
40279,53555
40273,53584
40269,53560
40272,53544
40249,53555
40263,53528
40256,53501
40240,53523
40247,53477
40241,53493
40233,53500
40240,53467
40235,53471
40258,53489
40248,53502
40235,53513
40241,53527
40260,53518
40247,53537
40266,53549
40250,53562
40261,53564
40263,53578
40261,53578
40271,53597
40287,53597
40268,53619
40271,53644
40273,53661
40289,53653
40279,53676
40294,53674
40293,53690
40290,53686
40288,53715
40301,53714
40299,53733
40295,53722
40296,53739
40302,53750
40314,53762
40300,53768
40307,53779
40320,53782
40321,53788
40318,53796
40309,53811
40313,53820
40323,53818
40326,53837
40326,53856
40322,53862
40327,53855
40333,53866
40317,53868
40332,53880
40335,53888
40327,53896
40322,53901
40324,53901
40340,53903
40343,53926
40343,53912
40352,53925
40331,53928
40346,53936
40339,53933
40349,53941
40350,53951
40352,53954
40338,53949
40355,53981
40330,53966
40363,53989
40348,53988
40355,53993
40356,53987
40345,54005
40360,54015
40377,54026
40364,54023
40374,54020
40359,54047
40352,54025
40354,54010
40332,53963
40313,53895
40285,53763
40238,53633
40201,53487
40182,53374
40165,53316
40155,53255
40139,53214
40152,53204
40139,53196
40147,53218
40162,53237
40161,53247
40180,53277
40181,53309
40194,53317
40210,53356
40201,53371
40204,53421
40232,53431
40217,53456
40242,53483
40246,53472
40233,53497
40247,53515
40264,53536
40267,53572
40257,53592
40278,53604
40280,53631
40289,53644
40285,53644
40293,53664
40269,53643
40261,53635
40269,53636
40247,53620
40255,53602
40260,53588
40254,53589
40258,53600
40246,53542
40249,53552
40249,53572
40251,53559
40254,53577
40252,53598
40253,53603
40257,53610
40272,53634
40271,53635
40311,53640
40304,53643
40277,53667
40241,53687
40286,53687
40258,53676
40278,53710
40295,53715
40294,53746
40294,53745
40304,53754
40312,53751
40298,53778
40303,53782
40297,53775
40310,53783
40315,53804
40313,53820
40318,53827
40318,53835
40319,53836
40320,53846
40313,53855
40322,53864
40315,53867
40330,53876
40321,53870
40319,53900
40317,53905
40327,53908
40331,53897
40330,53911
40331,53928
40333,53925
40332,53941
40330,53940
40326,53941
40327,53950
40329,53942
40330,53957
40340,53952
40328,53966
40344,53964
40339,53982
40351,53990
40348,54000
40336,53997
40347,54010
40330,54014
40348,54010
40348,54025
40349,54022
40353,54030
40352,54032
40336,54043
40350,54013
40332,53969
40300,53921
40270,53821
40251,53698
40207,53531
40185,53436
40150,53365
40158,53315
40147,53273
40150,53268
40134,53255
40159,53261
40148,53286
40163,53305
40192,53327
40181,53369
40203,53378
40211,53409
40200,53433
40225,53450
40224,53488
40240,53521
40247,53533
40245,53548
40253,53560
40262,53572
40260,53601
40273,53643
40277,53651
40283,53663
40286,53684
40282,53714
40298,53709
40277,53695
40288,53690
40274,53691
40260,53672
40256,53659
40270,53648
40262,53638
40252,53625
40246,53603
40241,53601
40253,53611
40249,53611
40257,53605
40263,53637
40266,53626
40260,53650
40263,53658
40257,53670
40284,53674
40272,53683
40276,53685
40277,53707
40281,53730
40268,53736
40306,53754
40284,53754
40285,53760
40284,53780
40306,53787
40293,53785
40298,53796
40293,53815
40310,53812
40318,53835
40299,53833
40301,53848
40311,53851
40316,53845
40310,53883
40304,53869
40304,53872
40314,53890
40319,53882
40318,53908
40332,53895
40333,53906
40311,53903
40316,53919
40330,53929
40321,53947
40334,53943
40344,53945
40318,53942
40325,53943
40332,53954
40320,53977
40341,53976
40334,53972
40342,53977
40342,53988
40339,54005
40325,54004
40329,54022
40335,54029
40349,54026
40355,54025
40329,54007
40334,53997
40302,53930
40271,53837
40255,53702
40196,53542
40168,53415
40141,53353
40126,53268
40125,53237
40117,53210
40122,53187
40123,53198
40131,53214
40131,53220
40143,53232
40144,53241
40152,53275
40155,53297
40161,53311
40189,53339
40191,53347
40187,53370
40173,53375
40181,53391
40195,53390
40205,53419
40208,53428
40204,53452
40204,53476
40227,53492
40228,53530
40236,53529
40238,53561
40242,53563
40235,53565
40230,53552
40238,53546
40223,53533
40213,53526
40222,53530
40223,53509
40211,53483
40208,53475
40204,53488
40216,53494
40215,53476
40199,53488
40206,53492
40221,53503
40219,53521
40223,53524
40231,53531
40232,53545
40234,53565
40233,53558
40230,53575
40246,53590
40232,53598
40248,53621
40249,53617
40245,53629
40243,53629
40259,53637
40260,53665
40260,53622
40250,53672
40265,53678
40259,53690
40261,53702
40261,53712
40282,53711
40270,53725
40287,53732
40270,53721
40293,53742
40273,53756
40285,53746
40281,53767
40290,53787
40285,53792
40289,53820
40291,53831
40290,53799
40284,53821
40279,53809
40291,53819
40284,53834
40288,53847
40301,53863
40289,53859
40310,53863
40297,53869
40328,53882
40296,53865
40288,53875
40267,53878
40291,53897
40294,53876
40306,53882
40298,53897
40309,53905
40306,53914
40306,53936
40305,53938
40331,53926
40321,53935
40317,53949
40319,53975
40319,53959
40304,53958
40304,53937
40295,53883
40264,53805
40229,53676
40202,53537
40152,53402
40130,53320
40120,53257
40100,53197
40100,53165
40101,53137
40113,53147
40097,53134
40103,53160
40108,53178
40118,53191
40124,53218
40140,53236
40134,53246
40132,53275
40153,53288
40144,53299
40136,53311
40163,53318
40160,53314
40161,53326
40165,53344
40186,53351
40189,53411
40195,53406
40214,53428
40209,53455
40204,53471
40205,53469
40192,53479
40199,53473
40203,53458
40194,53447
40197,53442
40175,53423
40191,53418
40173,53406
40177,53405
40178,53404
40199,53406
40177,53413
40186,53400
40194,53419
40201,53417
40188,53433
40181,53450
40194,53443
40186,53471
40199,53461
40198,53482
40183,53500
40209,53504
40208,53513
40203,53517
40222,53539
40211,53526
40224,53567
40214,53566
40229,53582
40241,53594
40231,53600
40225,53612
40237,53621
40223,53629
40233,53636
40255,53659
40239,53655
40245,53658
40245,53654
40249,53677
40242,53679
40244,53684
40246,53709
40250,53712
40265,53722
40252,53727
40265,53732
40261,53730
40267,53741
40267,53746
40266,53750
40269,53760
40262,53764
40270,53776
40270,53774
40274,53794
40268,53788
40279,53800
40283,53811
40266,53793
40276,53812
40287,53829
40286,53831
40278,53850
40290,53845
40275,53844
40281,53856
40282,53862
40282,53860
40296,53859
40283,53868
40290,53862
40299,53877
40315,53881
40303,53917
40304,53905
40318,53913
40311,53910
40314,53933
40309,53926
40316,53934
40296,53926
40286,53927
40271,53867
40249,53810
40220,53682
40193,53543
40158,53414
40121,53300
40113,53255
40104,53192
40084,53155
40095,53135
40090,53154
40108,53155
40106,53180
40124,53203
40106,53219
40133,53237
40135,53266
40147,53269
40131,53292
40159,53313
40177,53335
40168,53340
40167,53349
40162,53372
40168,53385
40170,53410
40183,53435
40188,53448
40201,53465
40206,53494
40199,53498
40197,53518
40211,53522
40211,53515
40207,53488
40198,53493
40198,53471
40184,53456
40182,53447
40182,53432
40182,53411
40190,53432
40179,53422
40184,53424
40169,53419
40193,53424
40184,53445
40186,53454
40200,53457
40187,53462
40193,53489
40198,53496
40205,53502
40208,53514
40201,53522
40228,53534
40200,53524
40223,53540
40220,53563
40232,53563
40233,53576
40218,53576
40213,53589
40231,53586
40227,53608
40228,53608
40236,53624
40235,53638
40238,53622
40233,53645
40240,53655
40251,53666
40241,53662
40241,53678
40244,53679
40266,53693
40239,53696
40260,53699
40272,53718
40251,53714
40264,53723
40252,53767
40250,53750
40282,53743
40257,53750
40260,53757
40272,53746
40262,53756
40263,53758
40278,53780
40265,53796
40260,53793
40296,53789
40271,53806
40271,53811
40282,53816
40261,53829
40277,53827
40274,53824
40275,53852
40278,53863
40269,53838
40291,53806
40279,53829
40291,53841
40279,53870
40278,53878
40304,53886
40294,53898
40285,53904
40303,53902
40324,53919
40342,53929
40312,53935
40296,53921
40298,53897
40260,53859
40241,53777
40219,53676
40183,53534
40143,53392
40113,53312
40100,53253
40091,53195
40091,53147
40076,53148
40095,53135
40090,53160
40098,53160
40108,53179
40121,53214
40120,53246
40126,53253
40139,53285
40137,53283
40145,53307
40154,53324
40155,53314
40160,53354
40175,53361
40173,53375
40178,53383
40186,53423
40193,53431
40204,53464
40198,53478
40208,53507
40209,53497
40220,53515
40198,53516
40192,53506
40192,53471
40187,53462
40195,53456
40171,53447
40175,53440
40172,53431
40165,53412
40175,53427
40180,53420
40177,53418
40195,53432
40179,53439
40183,53466
40189,53453
40190,53472
40191,53482
40196,53491
40203,53484
40194,53505
40191,53512
40207,53528
40214,53544
40212,53551
40211,53549
40228,53569
40220,53580
40212,53584
40220,53591
40218,53608
40232,53619
40222,53621
40225,53631
40230,53650
40245,53651
40252,53643
40255,53665
40238,53655
40249,53663
40259,53695
40244,53696
40258,53697
40258,53728
40249,53738
40252,53724
40251,53722
40257,53737
40245,53732
40261,53766
40257,53769
40254,53761
40266,53770
40269,53773
40261,53775
40271,53787
40271,53803
40276,53783
40257,53805
40276,53813
40274,53805
40285,53825
40276,53828
40267,53821
40273,53825
40277,53845
40272,53850
40278,53849
40281,53864
40281,53863
40276,53874
40287,53865
40283,53878
40296,53873
40288,53885
40297,53897
40297,53897
40297,53906
40291,53917
40290,53924
40291,53925
40299,53934
40298,53942
40298,53922
40295,53919
40279,53868
40253,53790
40208,53670
40170,53502
40138,53361
40107,53290
40079,53218
40077,53160
40075,53120
40075,53115
40081,53113
40080,53118
40080,53136
40091,53133
40091,53160
40099,53180
40111,53208
40112,53219
40117,53231
40120,53255
40152,53259
40137,53263
40122,53300
40149,53296
40157,53322
40147,53322
40165,53351
40150,53358
40171,53379
40178,53398
40182,53440
40185,53451
40178,53440
40186,53456
40186,53446
40186,53438
40172,53423
40171,53397
40156,53403
40168,53389
40176,53376
40153,53364
40163,53385
40159,53386
40170,53382
40159,53379
40167,53393
40176,53409
40169,53419
40173,53406
40171,53414
40169,53438
40185,53446
40172,53464
40185,53456
40188,53472
40204,53479
40194,53505
40201,53500
40200,53532
40201,53532
40209,53535
40202,53545
40210,53570
40213,53572
40205,53591
40216,53589
40224,53611
40227,53599
40226,53607
40214,53622
40211,53641
40230,53653
40233,53649
40238,53648
40233,53655
40231,53671
40236,53658
40241,53684
40247,53680
40238,53691
40245,53709
40239,53722
40253,53700
40243,53709
40253,53744
40251,53731
40252,53734
40267,53731
40255,53760
40245,53752
40261,53755
40254,53778
40271,53776
40261,53772
40261,53792
40278,53791
40269,53834
40247,53793
40260,53812
40264,53808
40261,53829
40275,53791
40273,53827
40261,53827
40270,53836
40264,53849
40276,53858
40286,53863
40273,53850
40277,53857
40267,53882
40302,53879
40290,53900
40278,53897
40286,53915
40292,53923
40289,53950
40292,53909
40295,53892
40279,53887
40298,53901
40264,53848
40235,53747
40188,53617
40144,53463
40111,53337
40099,53251
40092,53186
40086,53123
40049,53100
40049,53112
40264,53808
40050,53109
40057,53135
40104,53156
40077,53156
40094,53198
40121,53210
40109,53235
40113,53255
40118,53271
40122,53286
40139,53308
40143,53308
40138,53325
40154,53333
40154,53350
40150,53375
40152,53395
40168,53413
40175,53441
40182,53473
40179,53461
40168,53472
40181,53454
40164,53463
40167,53460
40171,53412
40160,53415
40156,53384
40157,53368
40149,53378
40148,53369
40153,53359
40145,53391
40158,53383
40157,53373
40165,53388
40157,53396
40175,53400
40154,53401
40177,53426
40172,53417
40158,53450
40172,53453
40172,53465
40178,53493
40179,53486
40187,53485
40189,53518
40182,53519
40188,53529
40189,53541
40186,53545
40193,53551
40196,53574
40191,53555
40204,53567
40215,53592
40204,53600
40198,53603
40202,53602
40211,53630
40200,53625
40212,53640
40212,53628
40223,53641
40215,53655
40225,53676
40237,53668
40214,53678
40241,53703
40225,53690
40230,53700
40231,53712
40230,53716
40237,53717
40234,53723
40232,53733
40227,53728
40239,53745
40227,53750
40235,53741
40238,53761
40248,53762
40247,53778
40247,53771
40255,53780
40245,53787
40248,53783
40245,53796
40251,53804
40268,53813
40253,53802
40259,53839
40257,53846
40256,53850
40271,53866
40273,53865
40258,53854
40266,53844
40253,53825
40228,53787
40205,53705
40170,53547
40122,53386
40097,53273
40051,53190
40035,53108
40030,53052
40016,53035
40020,53025
40033,53023
40028,53029
40037,53037
40036,53052
40046,53061
40048,53084
40064,53100
40062,53101
40068,53139
40080,53146
40078,53156
40073,53167
40080,53175
40082,53200
40098,53206
40109,53215
40096,53238
40111,53265
40118,53288
40133,53323
40113,53334
40135,53350
40142,53356
40117,53356
40132,53344
40139,53347
40123,53320
40132,53319
40127,53299
40098,53291
40115,53292
40106,53265
40092,53270
40119,53266
40114,53273
40111,53289
40103,53288
40107,53296
40119,53315
40114,53314
40137,53333
40121,53340
40125,53338
40127,53351
40132,53362
40130,53370
40144,53392
40150,53402
40164,53412
40162,53411
40162,53435
40160,53450
40165,53465
40149,53476
40160,53483
40162,53494
40172,53496
40177,53511
40171,53520
40175,53517
40181,53534
40160,53528
40188,53558
40186,53563
40194,53566
40188,53587
40203,53574
40197,53574
40201,53591
40199,53600
40185,53610
40203,53621
40193,53639
40205,53625
40197,53648
40201,53651
40201,53655
40201,53670
40232,53688
40220,53679
40217,53693
40231,53693
40233,53704
40194,53706
40227,53719
40222,53705
40225,53719
40206,53713
40228,53728
40234,53731
40235,53741
40212,53746
40232,53755
40238,53756
40219,53774
40225,53763
40238,53790
40251,53798
40235,53791
40225,53806
40244,53796
40245,53835
40251,53828
40254,53837
40253,53842
40251,53842
40231,53835
40237,53816
40200,53730
40177,53619
40114,53485
40089,53321
40051,53199
40035,53105
40025,53050
40004,52981
39992,52963
39999,52975
39995,52965
40007,52972
40009,52996
40004,53015
40021,53015
40016,53044
40038,53112
40057,53119
40045,53113
40062,53094
40062,53140
40065,53140
40080,53173
40072,53178
40079,53196
40096,53210
40100,53243
40098,53271
40114,53285
40154,53301
40130,53335
40107,53321
40085,53320
40102,53325
40083,53293
40095,53304
40100,53270
40098,53257
40097,53246
40091,53259
40089,53220
40081,53228
40097,53236
40095,53254
40100,53236
40096,53254
40101,53251
40098,53266
40115,53280
40111,53292
40094,53306
40118,53310
40111,53312
40120,53330
40119,53343
40115,53356
40132,53357
40121,53384
40137,53371
40137,53384
40134,53415
40125,53414
40144,53424
40156,53426
40145,53455
40150,53458
40152,53458
40152,53475
40161,53471
40143,53483
40185,53483
40157,53480
40166,53505
40159,53515
40171,53513
40169,53537
40177,53546
40175,53541
40170,53556
40183,53569
40171,53566
40171,53553
40171,53587
40175,53582
40189,53601
40180,53620
40194,53599
40186,53613
40191,53617
40192,53628
40184,53628
40200,53643
40187,53637
40205,53658
40190,53633
40191,53655
40199,53656
40196,53650
40196,53671
40195,53676
40200,53691
40213,53686
40207,53695
40207,53707
40221,53720
40217,53721
40214,53743
40212,53735
40215,53756
40220,53744
40214,53742
40213,53736
40188,53684
40162,53604
40123,53484
40088,53295
40034,53181
40016,53074
39990,52994
39977,52933
39976,52885
39965,52876
39968,52870
39957,52872
39967,52860
39979,52895
39990,52917
39993,52928
40013,52935
40013,52968
39996,52985
40024,53009
40023,53019
40039,53027
40034,53056
40044,53068
40039,53079
40050,53088
40044,53121
40064,53153
40078,53174
40067,53193
40091,53223
40095,53227
40097,53224
40093,53233
40077,53245
40091,53216
40070,53200
40073,53198
40057,53184
40074,53164
40052,53149
40061,53149
40057,53151
40048,53144
40063,53148
40057,53143
40060,53161
40072,53177
40076,53188
40074,53196
40089,53219
40074,53215
40086,53217
40074,53243
40067,53243
40118,53267
40113,53271
40106,53297
40100,53293
40102,53330
40115,53325
40125,53338
40131,53344
40130,53357
40135,53363
40127,53386
40141,53392
40145,53403
40154,53407
40145,53414
40147,53415
40151,53443
40166,53434
40145,53451
40153,53464
40160,53485
40148,53489
40153,53489
40154,53492
40156,53491
40165,53515
40175,53521
40165,53519
40170,53537
40190,53542
40189,53561
40169,53540
40179,53559
40174,53582
40187,53580
40186,53580
40188,53597
40187,53608
40186,53593
40176,53606
40197,53611
40195,53632
40179,53630
40197,53630
40190,53631
40198,53633
40191,53652
40191,53659
40196,53656
40195,53658
40186,53679
40211,53672
40207,53684
40211,53696
40216,53704
40217,53697
40219,53715
40209,53713
40228,53736
40235,53737
40231,53745
40216,53748
40213,53721
40193,53659
40167,53567
40129,53431
40050,53256
40040,53133
39996,53006
39983,52934
39948,52896
39948,52853
39948,52831
39962,52813
39960,52841
39989,52837
39973,52872
39975,52890
39986,52906
39995,52922
40014,52955
40014,52972
40001,52981
40028,53015
40038,53005
40039,53021
40042,53046
40038,53072
40053,53077
40044,53104
40063,53158
40064,53171
40084,53175
40079,53202
40123,53218
40077,53221
40087,53220
40078,53216
40078,53201
40068,53189
40087,53144
40063,53088
40070,53092
40069,53114
40069,53113
40059,53109
40063,53125
40060,53112
40065,53136
40055,53152
40080,53149
40080,53154
40084,53172
40067,53185
40063,53198
40067,53193
40076,53206
40090,53231
40100,53229
40095,53251
40114,53250
40103,53279
40110,53291
40099,53304
40106,53306
40119,53312
40122,53319
40122,53351
40128,53347
40144,53358
40130,53363
40124,53377
40134,53386
40142,53389
40142,53404
40141,53398
40153,53419
40156,53436
40166,53429
40148,53452
40159,53441
40149,53457
40157,53465
40163,53492
40160,53485
40162,53497
40151,53501
40164,53508
40180,53506
40175,53520
40163,53532
40173,53537
40172,53548
40167,53553
40192,53554
40188,53573
40179,53567
40183,53568
40193,53570
40190,53598
40180,53596
40188,53588
40191,53596
40196,53610
40181,53614
40186,53624
40195,53621
40192,53631
40197,53646
40210,53660
40213,53661
40210,53661
40218,53667
40214,53701
40210,53700
40232,53700
40210,53689
40202,53634
40165,53553
40125,53435
40081,53249
40036,53119
40006,52994
39988,52895
39948,52822
39945,52787
39946,52772
39941,52758
39943,52739
39937,52770
39950,52777
39969,52781
39974,52806
39977,52830
39970,52850
39983,52866
39989,52892
40005,52897
40000,52910
40010,52913
39994,52943
40017,52936
40030,52970
40027,52978
40028,53020
40033,53029
40042,53057
40050,53075
40064,53095
40066,53116
40065,53109
40058,53122
40068,53121
40047,53102
40054,53079
40053,53075
40054,53055
40050,53043
40035,53036
40047,53031
40039,53037
40032,53036
40045,53037
40038,53049
40046,53052
40055,53067
40056,53075
40058,53085
40066,53094
40062,53106
40076,53112
40079,53127
40075,53151
40095,53154
40087,53158
40092,53174
40087,53190
40096,53221
40103,53220
40097,53231
40096,53243
40110,53247
40128,53286
40125,53275
40125,53296
40130,53295
40126,53318
40135,53316
40136,53333
40134,53343
40143,53335
40138,53359
40148,53360
40154,53375
40145,53384
40148,53396
40155,53400
40157,53403
40146,53405
40158,53429
40150,53430
40169,53428
40168,53443
40176,53467
40156,53470
40173,53465
40172,53480
40178,53484
40171,53490
40169,53489
40180,53516
40186,53531
40187,53522
40189,53527
40182,53528
40192,53546
40192,53539
40184,53548
40191,53555
40178,53567
40185,53557
40197,53589
40192,53575
40193,53602
40209,53597
40206,53594
40207,53613
40209,53619
40214,53633
40209,53633
40204,53638
40213,53643
40190,53657
40222,53658
40226,53666
40219,53696
40223,53686
40219,53694
40219,53695
40198,53668
40184,53611
40169,53500
40119,53325
40072,53166
40018,53042
39990,52907
39971,52844
39957,52781
39948,52762
39944,52735
39952,52729
39943,52738
39962,52749
39953,52772
39980,52775
39988,52800
39997,52844
39997,52862
39988,52866
40001,52884
40011,52912
40022,52924
40018,52924
40038,52950
40037,52954
40054,52966
40051,52987
40046,53024
40060,53042
40089,53093
40084,53077
40086,53113
40079,53128
40083,53111
40068,53088
40069,53111
40069,53103
40049,53071
40058,53058
40061,53051
40060,53051
40055,53039
40046,53035
40066,53022
40081,53037
40073,53040
40068,53060
40080,53057
40081,53097
40077,53132
40083,53108
40087,53091
40080,53118
40102,53140
40089,53169
40114,53187
40109,53181
40109,53202
40136,53220
40144,53223
40134,53230
40154,53237
40127,53252
40133,53262
40119,53286
40130,53308
40137,53290
40146,53311
40152,53313
40158,53329
40164,53335
40145,53339
40169,53362
40149,53372
40142,53368
40157,53390
40166,53392
40160,53398
40165,53404
40165,53417
40170,53433
40179,53424
40187,53431
40173,53452
40185,53461
40186,53466
40185,53469
40173,53471
40210,53489
40183,53499
40191,53497
40205,53504
40196,53504
40202,53520
40194,53527
40199,53540
40205,53540
40201,53559
40207,53550
40212,53568
40199,53570
40201,53577
40215,53581
40202,53578
40211,53587
40221,53588
40222,53605
40213,53609
40226,53616
40223,53622
40213,53642
40230,53639
40249,53646
40226,53656
40249,53670
40232,53669
40233,53669
40231,53708
40252,53687
40254,53705
40240,53722
40249,53695
40247,53665
40207,53611
40187,53511
40137,53368
40080,53191
40050,53071
40036,52963
40006,52879
39980,52828
39967,52809
39989,52797
39970,52801
40004,52801
39991,52821
40018,52847
39995,52856
40026,52889
40033,52919
40034,52929
40059,52955
40071,53000
40080,53009
40068,53036
40066,53064
40098,53057
40094,53087
40089,53103
40125,53132
40111,53164
40120,53188
40124,53223
40125,53212
40136,53242
40133,53242
40128,53222
40123,53198
40102,53195
40119,53179
40107,53161
40105,53160
40098,53137
40092,53120
40092,53120
40099,53115
40095,53115
40116,53118
40101,53135
40110,53141
40113,53147
40129,53173
40121,53173
40117,53200
40126,53195
40123,53229
40135,53223
40135,53238
40138,53238
40137,53272
40147,53265
40157,53278
40149,53310
40150,53298
40170,53313
40178,53339
40159,53348
40174,53355
40178,53345
40177,53366
40189,53364
40185,53378
40181,53392
40195,53403
40191,53404
40186,53412
40198,53425
40185,53437
40201,53441
40201,53460
40191,53448
40198,53460
40210,53480
40204,53499
40211,53484
40217,53498
40203,53529
40212,53505
40216,53503
40215,53527
40215,53533
40217,53540
40223,53550
40218,53551
40217,53545
40216,53579
40225,53577
40227,53579
40228,53583
40244,53583
40244,53594
40225,53603
40232,53615
40235,53601
40245,53611
40237,53633
40242,53651
40250,53644
40233,53652
40237,53644
40259,53658
40237,53667
40257,53690
40250,53698
40255,53690
40232,53660
40228,53634
40209,53539
40162,53404
40098,53239
40063,53088
40055,52977
40005,52871
40004,52831
39983,52789
39982,52761
40006,52761
39992,52763
39997,52777
40002,52782
40019,52819
40027,52810
40029,52853
40019,52858
40042,52877
40045,52894
40045,52918
40057,52943
40049,52948
40066,52968
40068,52966
40080,52993
40085,53020
40097,53051
40112,53065
40108,53077
40121,53115
40115,53146
40119,53145
40130,53149
40121,53150
40119,53145
40112,53127
40112,53113
40108,53101
40102,53095
40103,53092
40094,53062
40078,53068
40102,53064
40090,53064
40084,53087
40091,53073
40107,53088
40114,53080
40112,53115
40125,53132
40125,53141
40121,53149
40123,53162
40135,53176
40143,53178
40125,53200
40153,53220
40160,53219
40143,53241
40157,53259
40162,53261
40154,53262
40176,53317
40181,53328
40177,53318
40164,53294
40191,53344
40173,53331
40180,53351
40181,53358
40196,53367
40199,53371
40189,53384
40199,53401
40221,53408
40228,53418
40205,53417
40195,53437
40194,53436
40114,53080
40201,53451
40204,53457
40221,53465
40210,53469
40226,53479
40220,53502
40229,53510
40213,53496
40221,53505
40228,53498
40231,53505
40234,53537
40244,53529
40229,53542
40238,53551
40240,53562
40243,53563
40229,53565
40263,53583
40243,53593
40241,53580
40229,53598
40244,53618
40255,53603
40248,53610
40242,53626
40262,53630
40251,53636
40262,53641
40263,53676
40251,53664
40251,53663
40253,53668
40262,53693
40255,53684
40251,53651
40230,53592
40203,53492
40152,53341
40098,53151
40082,53042
40041,52939
40016,52858
40006,52791
39998,52759
39994,52747
40005,52764
40002,52754
39999,52784
40027,52790
40021,52802
40032,52841
40056,52848
40039,52873
40062,52885
40058,52931
40048,52932
40085,52936
40087,52959
40085,52958
40089,52970
40083,53001
40098,53024
40105,53029
40116,53063
40114,53092
40125,53110
40120,53129
40141,53140
40135,53149
40122,53132
40114,53101
40136,53117
40124,53097
40132,53088
40118,53084
40101,53063
40134,53059
40107,53068
40116,53064
40118,53064
40126,53075
40124,53072
40134,53088
40121,53115
40127,53121
40140,53117
40142,53151
40151,53154
40144,53151
40162,53186
40160,53170
40147,53198
40160,53213
40170,53221
40159,53231
40172,53245
40180,53248
40188,53270
40178,53287
40188,53279
40185,53296
40198,53292
40193,53326
40190,53331
40209,53340
40207,53345
40193,53345
40223,53377
40217,53379
40217,53379
40214,53383
40209,53399
40213,53413
40230,53412
40227,53414
40235,53434
40220,53444
40233,53459
40231,53451
40241,53466
40241,53472
40229,53482
40237,53488
40243,53503
40237,53506
40251,53495
40251,53512
40247,53521
40248,53527
40258,53532
40241,53534
40248,53544
40241,53543
40257,53552
40251,53539
40257,53558
40246,53567
40245,53584
40248,53592
40261,53593
40265,53590
40278,53605
40276,53606
40269,53641
40283,53641
40263,53652
40273,53642
40267,53628
40253,53600
40226,53518
40190,53415
40144,53238
40130,53098
40080,52997
40058,52905
40023,52825
40045,52792
40031,52778
40022,52767
40016,52757
40023,52775
40043,52786
40046,52797
40051,52825
40062,52853
40064,52873
40085,52891
40082,52912
40092,52933
40096,52944
40102,52942
40101,52980
40101,52985
40115,52990
40120,53021
40121,53054
40148,53074
40154,53096
40149,53123
40161,53145
40142,53158
40148,53149
40152,53140
40150,53122
40157,53135
40155,53115
40141,53098
40130,53090
40132,53077
40146,53069
40150,53086
40122,53062
40127,53071
40140,53072
40151,53071
40144,53081
40157,53103
40154,53089
40155,53122
40159,53137
40157,53157
40152,53163
40172,53165
40176,53186
40177,53181
40170,53218
40179,53220
40191,53236
40183,53229
40205,53244
40186,53264
40201,53277
40191,53284
40190,53291
40204,53310
40203,53305
40208,53329
40203,53333
40212,53329
40215,53339
40212,53360
40224,53356
40226,53371
40228,53378
40229,53380
40226,53387
40240,53404
40227,53414
40238,53417
40239,53414
40244,53443
40218,53432
40243,53456
40245,53457
40252,53484
40254,53469
40248,53433
40254,53472
40261,53462
40261,53489
40264,53490
40258,53500
40245,53495
40254,53508
40269,53530
40261,53504
40293,53523
40278,53534
40248,53538
40241,53551
40274,53548
40254,53549
40275,53550
40272,53570
40283,53573
40273,53585
40281,53598
40283,53605
40294,53615
40278,53607
40267,53615
40279,53607
40247,53572
40239,53485
40201,53370
40154,53194
40117,53078
40092,52951
40056,52873
40058,52815
40036,52795
40034,52764
40055,52777
40036,52777
40049,52777
40060,52810
40048,52820
40079,52831
40078,52868
40081,52896
40104,52904
40097,52948
40107,52954
40114,52965
40134,52983
40124,52982
40118,53007
40149,53032
40138,53049
40150,53084
40158,53105
40173,53135
40172,53142
40161,53144
40165,53157
40165,53148
40167,53134
40160,53123
40136,53102
40130,53080
40139,53048
40139,53041
40113,53034
40121,53020
40120,53029
40132,53012
40133,53022
40118,53024
40133,53036
40153,53059
40152,53052
40143,53064
40156,53076
40165,53090
40146,53105
40166,53116
40157,53146
40167,53129
40155,53144
40173,53156
40183,53165
40195,53181
40186,53190
40200,53203
40190,53210
40185,53219
40202,53226
40196,53219
40199,53232
40186,53261
40198,53251
40195,53262
40215,53256
40208,53269
40207,53305
40226,53288
40223,53304
40210,53309
40209,53323
40211,53338
40208,53333
40221,53338
40226,53350
40218,53349
40238,53363
40235,53371
40233,53364
40237,53383
40235,53386
40224,53388
40238,53395
40222,53408
40231,53397
40238,53426
40217,53412
40237,53424
40230,53427
40247,53437
40235,53444
40253,53438
40247,53439
40245,53462
40253,53466
40248,53476
40251,53488
40271,53483
40259,53499
40244,53504
40249,53461
40221,53389
40168,53261
40140,53098
40088,52952
40050,52827
40022,52745
40008,52676
40001,52643
39990,52604
39979,52599
39999,52587
39992,52586
39987,52602
39999,52620
40007,52620
40007,52633
40008,52672
40023,52661
40017,52672
40011,52705
40009,52691
40030,52696
40044,52715
40031,52723
40031,52731
40045,52746
40046,52760
40053,52782
40071,52812
40068,52821
40077,52846
40079,52857
40070,52853
40086,52862
40080,52855
40055,52835
40058,52826
40039,52796
40059,52800
40046,52797
40058,52776
40042,52772
40044,52778
40042,52773
40047,52783
40048,52769
40058,52787
40062,52783
40069,52801
40070,52798
40069,52810
40072,52834
40063,52836
40067,52833
40072,52845
40066,52863
40078,52876
40070,52888
40081,52912
40097,52917
40082,52936
40097,52943
40101,52951
40103,52951
40109,52979
40110,52983
40109,52982
40103,52995
40108,53011
40129,53017
40120,53024
40129,53021
40131,53057
40130,53052
40137,53057
40129,53075
40132,53098
40139,53081
40151,53096
40138,53113
40140,53124
40149,53132
40139,53138
40156,53124
40162,53133
40156,53147
40149,53176
40145,53191
40150,53169
40163,53173
40169,53197
40150,53206
40174,53191
40158,53202
40164,53222
40171,53213
40176,53227
40177,53263
40180,53230
40205,53242
40167,53248
40177,53264
40183,53265
40176,53281
40180,53291
40201,53283
40203,53300
40196,53292
40190,53326
40213,53318
40208,53343
40190,53347
40187,53359
40222,53366
40189,53374
40203,53379
40212,53358
40119,53118
40071,52942
40017,52790
39990,52657
39976,52581
39949,52524
39924,52471
39925,52446
39924,52422
39930,52428
39934,52413
39967,52416
39948,52430
39941,52437
39949,52452
40167,53248
39944,52474
39969,52486
39957,52500
39958,52529
39952,52508
39949,52518
39969,52526
39977,52548
39977,52557
39980,52584
39971,52585
40004,52624
39994,52649
39998,52654
40000,52672
40006,52674
40016,52673
40006,52666
40006,52652
40011,52649
39994,52622
39992,52606
39986,52599
40000,52603
39975,52593
39981,52594
39978,52586
39989,52596
39996,52605
40000,52610
40008,52608
40005,52621
39995,52628
40013,52625
40011,52654
39989,52661
39996,52664
40019,52675
40013,52700
40022,52710
40029,52724
40039,52727
40024,52756
40039,52743
40022,52752
40043,52786
40048,52809
40039,52804
40055,52813
40057,52828
40041,52831
40053,52843
40061,52854
40072,52872
40067,52876
40062,52883
40061,52875
40070,52888
40069,52920
40066,52915
40078,52921
40073,52918
40078,52942
40089,52961
40087,52973
40089,52962
40087,52984
40097,53013
40098,52985
40088,52992
40105,53023
40102,53014
40107,53033
40119,53022
40104,53033
40107,53045
40109,53046
40120,53073
40128,53080
40113,53078
40122,53079
40113,53095
40112,53108
40136,53117
40120,53118
40138,53134
40131,53132
40143,53150
40144,53159
40140,53159
40152,53164
40147,53179
40154,53189
40152,53201
40146,53211
40141,53219
40163,53242
40155,53233
40170,53245
40159,53240
40157,53262
40161,53266
40163,53281
40181,53293
40171,53289
40168,53298
40179,53320
40177,53321
40168,53332
40183,53341
40181,53340
40177,53341
40172,53319
40155,53251
40114,53139
40068,52967
40020,52815
39958,52655
39945,52563
39935,52497
39912,52427
39904,52413
39905,52398
39916,52391
39896,52392
39908,52408
39931,52421
39912,52440
39934,52462
39952,52492
39938,52511
39957,52530
39968,52527
39959,52561
39962,52582
39977,52586
39964,52592
39981,52599
39989,52630
39989,52649
40004,52669
39988,52702
40020,52728
40024,52733
40030,52740
40034,52730
40004,52723
40019,52707
39999,52689
39998,52681
39997,52657
39991,52637
39976,52621
39981,52618
39970,52619
39974,52603
39985,52604
39986,52623
39986,52613
39975,52627
39988,52632
40002,52656
39995,52666
40007,52666
40007,52688
39996,52702
40024,52722
40003,52723
40018,52754
40016,52762
40029,52764
40030,52775
40022,52785
40022,52809
40035,52805
40033,52816
40025,52818
40048,52846
40050,52838
40041,52847
40048,52874
40059,52869
40074,52882
40070,52882
40066,52902
40060,52907
40067,52931
40085,52934
40079,52951
40085,52960
40088,52963
40080,52984
40086,52985
40098,52984
40088,53010
40088,53014
40093,53007
40107,53038
40116,53042
40105,53041
40099,53054
40107,53044
40107,53063
40107,53076
40116,53087
40119,53087
40106,53086
40124,53102
40120,53113
40120,53119
40125,53131
40123,53139
40117,53138
40122,53144
40123,53160
40127,53175
40140,53172
40148,53185
40150,53182
40136,53232
40146,53202
40147,53204
40158,53230
40165,53247
40140,53217
40143,53255
40159,53257
40175,53265
40154,53287
40175,53299
40171,53303
40157,53280
40151,53233
40111,53143
40084,52988
40005,52824
39976,52657
39934,52548
39916,52490
39879,52350
39885,52306
39871,52280
39865,52301
39861,52329
39875,52326
39879,52345
39889,52346
39908,52368
39901,52369
39915,52395
39945,52422
39938,52407
39953,52420
39921,52448
39916,52450
39911,52473
39930,52471
39942,52493
39956,52495
39956,52526
39961,52561
39971,52581
39971,52574
39968,52594
39982,52601
39966,52611
39975,52602
39959,52589
39963,52566
39953,52558
39965,52535
39958,52538
39954,52527
39965,52514
39944,52487
39955,52518
39947,52516
39953,52521
39955,52537
39964,52531
39968,52541
39966,52566
39983,52580
39983,52589
39973,52589
39986,52613
39973,52614
39987,52634
39994,52625
39990,52655
40002,52667
40006,52685
40003,52691
39996,52704
40018,52726
40015,52730
40027,52745
40017,52734
40038,52752
40027,52761
40035,52785
40033,52786
40042,52800
40052,52808
40049,52830
40050,52823
40046,52832
40050,52865
40062,52859
40061,52875
40051,52889
40058,52891
40059,52899
40076,52911
40075,52922
40077,52923
40085,52943
40087,52947
40081,52963
40082,52972
40088,52967
40101,52993
40093,53009
40096,53013
40083,53014
40098,53024
40117,53042
40091,53039
40103,53038
40116,53061
40123,53056
40124,53061
40121,53095
40132,53099
40125,53098
40117,53103
40124,53130
40135,53129
40119,53150
40123,53130
40134,53153
40140,53158
40144,53161
40148,53173
40134,53184
40145,53186
40155,53219
40143,53203
40145,53217
40152,53219
40166,53233
40170,53246
40166,53257
40164,53253
40166,53278
40176,53281
40182,53295
40182,53303
40175,53286
40179,53286
40151,53224
40120,53125
40057,52941
40012,52797
39968,52613
39952,52498
39917,52428
39894,52370
39883,52330
39892,52295
39879,52304
39889,52318
39904,52309
39897,52324
39896,52330
39907,52348
39918,52389
39927,52396
39945,52421
39942,52433
39945,52460
39938,52474
39962,52477
39938,52498
39953,52511
39958,52525
39965,52508
39971,52560
39986,52563
39987,52589
40000,52626
40004,52645
40012,52637
40005,52639
40000,52638
39994,52626
40000,52622
39982,52600
39991,52590
39983,52588
39990,52547
39992,52555
39975,52559
39979,52538
39981,52557
39980,52562
39985,52573
39994,52572
39980,52578
39986,52590
39995,52612
40011,52635
40003,52641
39998,52639
40014,52649
40011,52697
40040,52696
40019,52702
40034,52709
40034,52734
40038,52746
40046,52767
40039,52775
40057,52797
40068,52799
40057,52811
40074,52815
40061,52836
40066,52854
40078,52860
40079,52883
40086,52875
40092,52895
40091,52898
40089,52921
40106,52915
40098,52929
40090,52956
40080,52968
40094,52964
40112,52991
40116,52996
40097,53003
40119,53009
40122,53015
40114,53022
40124,53029
40128,53038
40131,53045
40131,53041
40135,53062
40147,53080
40126,53082
40144,53074
40148,53104
40146,53109
40141,53107
40164,53133
40158,53119
40159,53124
40157,53143
40173,53156
40156,53177
40154,53169
40170,53168
40188,53197
40180,53199
40159,53212
40172,53219
40175,53244
40196,53226
40184,53240
40189,53262
40193,53260
40204,53214
40206,53268
40201,53270
40211,53290
40195,53310
40209,53305
40211,53312
40221,53339
40217,53338
40212,53347
40250,53370
40228,53347
40194,53307
40181,53242
40141,53146
40037,52809
39997,52627
39975,52509
39942,52441
39929,52440
39943,52393
39933,52387
39935,52394
39962,52396
39962,52414
39947,52421
39984,52449
40005,52492
39987,52520
39996,52546
39971,52578
40006,52590
40016,52600
40016,52635
40030,52645
40025,52665
40045,52675
40048,52706
40049,52700
40067,52751
40077,52774
40077,52790
40071,52815
40076,52817
40091,52826
40074,52822
40083,52812
40078,52791
40057,52779
40066,52761
40053,52739
40055,52709
40042,52725
40047,52702
40050,52708
40023,52709
40072,52719
40053,52715
40055,52724
40056,52746
40061,52745
40069,52763
40070,52782
40083,52790
40090,52802
40088,52806
40103,52832
40093,52831
40099,52854
40106,52879
40128,52864
40115,52890
40118,52901
40109,52918
40117,52919
40131,52942
40143,52945
40133,52963
40152,52972
40141,52968
40148,52997
40144,53014
40151,53019
40145,53032
40157,53040
40150,53050
40153,53049
40183,53069
40172,53071
40163,53091
40179,53091
40169,53091
40167,53117
40188,53110
40181,53130
40179,53129
40183,53159
40196,53168
40172,53163
40193,53164
40189,53193
40203,53178
40206,53201
40194,53202
40201,53208
40203,53214
40206,53219
40212,53230
40220,53221
40220,53244
40198,53260
40210,53243
40225,53259
40212,53261
40209,53283
40238,53303
40225,53294
40235,53307
40225,53318
40233,53324
40240,53336
40244,53354
40249,53361
40235,53356
40233,53348
40219,53288
40198,53203
40151,53042
40102,52884
40046,52739
40023,52607
39990,52519
39978,52457
39965,52422
39976,52394
39964,52396
39977,52395
39983,52414
39989,52422
39973,52435
40002,52469
40007,52494
40011,52499
40027,52537
40026,52558
40039,52564
40028,52606
40046,52607
40036,52620
40052,52645
40048,52668
40077,52671
40075,52703
40081,52730
40090,52750
40104,52779
40099,52789
40100,52807
40113,52818
40102,52811
40085,52798
40100,52761
40106,52766
40081,52731
40088,52726
40071,52701
40082,52714
40070,52698
40066,52717
40084,52716
40095,52718
40096,52714
40091,52715
40096,52739
40087,52747
40103,52765
40122,52763
40134,52798
40126,52804
40126,52811
40131,52845
40138,52842
40133,52848
40135,52883
40122,52907
40147,52890
40140,52915
40148,52923
40164,52946
40170,52949
40171,52967
40175,52987
40176,52994
40188,52987
40174,53016
40186,53014
40190,53028
40196,53043
40191,53044
40196,53059
40203,53059
40198,53080
40216,53094
40213,53106
40205,53103
40212,53107
40215,53119
40219,53137
40227,53146
40237,53157
40237,53171
40221,53183
40234,53173
40232,53211
40229,53195
40237,53187
40240,53206
40241,53225
40249,53219
40236,53235
40256,53256
40244,53242
40255,53251
40257,53263
40257,53270
40260,53266
40275,53274
40252,53293
40268,53290
40268,53298
40261,53294
40263,53320
40262,53325
40269,53334
40271,53338
40280,53359
40281,53365
40291,53367
40278,53384
40292,53381
40278,53368
40272,53346
40243,53270
40218,53161
40167,52965
40106,52834
40058,52660
40039,52557
40024,52494
39994,52444
40013,52376
40013,52414
40002,52403
39992,52405
40008,52421
40025,52434
40017,52450
40028,52473
40050,52479
40031,52511
40088,52534
40055,52546
40075,52560
40074,52570
40063,52597
40073,52631
40095,52602
40078,52628
40110,52636
40111,52687
40125,52720
40123,52736
40120,52753
40131,52758
40136,52752
40123,52761
40152,52753
40132,52733
40125,52708
40122,52708
40024,52494
40096,52694
40101,52684
40111,52679
40125,52676
40117,52687
40126,52679
40129,52690
40123,52700
40129,52718
40126,52728
40146,52735
40141,52757
40157,52775
40159,52769
40167,52802
40170,52810
40159,52809
40157,52834
40189,52850
40185,52845
40169,52878
40178,52882
40189,52904
40174,52913
40201,52915
40203,52937
40204,52930
40203,52932
40197,52963
40215,52960
40204,52983
40216,53001
40213,53001
40210,53011
40233,53018
40220,53040
40220,53053
40226,53034
40242,53049
40237,53061
40239,53081
40243,53082
40251,53096
40255,53097
40259,53102
40255,53100
40259,53132
40280,53127
40273,53149
40256,53154
40256,53155
40271,53167
40263,53169
40275,53197
40264,53191
40268,53204
40270,53206
40296,53197
40282,53212
40307,53236
40279,53220
40287,53247
40290,53252
40296,53258
40298,53264
40317,53271
40307,53278
40305,53286
40318,53304
40303,53299
40316,53295
40306,53321
40317,53336
40318,53331
40329,53349
40317,53341
40321,53374
40307,53375
40316,53370
40329,53410
40337,53389
40344,53418
40330,53405
40336,53411
40327,53352
40299,53305
40262,53159
40205,52972
40164,52839
40125,52703
40083,52590
40076,52535
40061,52478
40061,52461
40053,52459
40049,52443
40071,52466
40078,52482
40078,52486
40080,52521
40090,52547
40105,52573
40125,52582
40123,52608
40142,52643
40152,52641
40136,52663
40141,52673
40138,52686
40143,52692
40144,52706
40176,52737
40191,52759
40192,52782
40201,52813
40203,52825
40216,52845
40204,52840
40208,52846
40198,52816
40196,52823
40188,52796
40185,52778
40180,52766
40182,52759
40187,52755
40179,52753
40174,52749
40196,52764
40173,52751
40193,52768
40203,52789
40212,52770
40197,52809
40220,52815
40213,52814
40214,52828
40224,52848
40219,52863
40219,52884
40229,52887
40232,52907
40228,52906
40240,52912
40248,52934
40261,52948
40249,52964
40265,52963
40260,52990
40274,52994
40270,53002
40274,53013
40277,53020
40278,53044
40279,53043
40295,53068
40286,53062
40282,53075
40296,53082
40289,53085
40285,53097
40309,53122
40296,53121
40291,53141
40314,53113
40308,53146
40314,53154
40310,53159
40317,53152
40324,53168
40320,53168
40330,53183
40330,53185
40319,53188
40327,53203
40336,53216
40329,53218
40330,53220
40334,53237
40343,53232
40329,53247
40338,53241
40343,53266
40342,53255
40328,53267
40338,53275
40328,53283
40351,53276
40348,53295
40367,53302
40366,53311
40339,53328
40356,53330
40361,53345
40365,53345
40382,53345
40363,53372
40374,53373
40377,53378
40381,53388
40374,53388
40377,53379
40383,53384
40367,53364
40345,53303
40300,53192
40253,53018
40213,52863
40183,52753
40161,52652
40136,52573
40123,52539
40125,52521
40123,52505
40136,52529
40138,52528
40132,52532
40151,52580
40156,52584
40163,52596
40176,52646
40179,52651
40186,52690
40190,52713
40213,52732
40210,52754
40213,52761
40229,52784
