40097,53149
40094,53150
40101,53145
40100,53162
40096,53184
40106,53182
40105,53212
40104,53200
40101,53196
40111,53213
40109,53211
40116,53195
40109,53240
40113,53242
40119,53248
40119,53260
40128,53273
40139,53282
40143,53278
40139,53292
40141,53310
40145,53330
40145,53320
40139,53333
40132,53361
40138,53352
40103,53211
40056,53041
40004,52850
39932,52633
39896,52543
39858,52397
39840,52305
39829,52256
39810,52235
39836,52232
39856,52225
39846,52259
39870,52277
39851,52331
39857,52353
39865,52365
39878,52406
39908,52448
39917,52465
39902,52472
39916,52472
39920,52509
39931,52495
39933,52510
39934,52520
39930,52559
39947,52578
39948,52608
39953,52613
39957,52653
39963,52675
39975,52678
39970,52683
39969,52659
39963,52614
39937,52622
39940,52590
39945,52573
39941,52576
39933,52558
39930,52564
39942,52570
39936,52575
39956,52583
39959,52593
39961,52614
39963,52630
39978,52658
39980,52662
39978,52680
39994,52701
39983,52731
40003,52754
39995,52771
39999,52770
40000,52793
40005,52809
40017,52832
40032,52841
40023,52861
40026,52874
40036,52879
40035,52900
40041,52918
40041,52924
40048,52927
40053,52956
40054,52958
40048,52950
40073,52979
40065,52990
40061,52998
40078,53022
40076,53016
40062,53037
40085,53031
40078,53055
40087,53048
40080,53061
40095,53080
40084,53075
40086,53089
40084,53098
40093,53092
40099,53105
40098,53118
40094,53140
40109,53153
40108,53141
40118,53153
40122,53169
40139,53173
40121,53178
40138,53191
40132,53196
40141,53212
40121,53220
40129,53235
40140,53245
40123,53245
40139,53250
40132,53272
40146,53273
40136,53271
40154,53283
40156,53284
40154,53298
40152,53305
40158,53306
40155,53330
40159,53336
40184,53335
40178,53346
40162,53347
40175,53366
40175,53373
40174,53395
40173,53408
40177,53411
40178,53413
40169,53437
40183,53427
40162,53391
40145,53319
40109,53210
40043,53026
39984,52803
39929,52604
39892,52452
39865,52330
39835,52263
39827,52215
39816,52209
39825,52209
39838,52213
39846,52251
39857,52257
39864,52291
39873,52314
39886,52351
39883,52388
39893,52395
39899,52418
39894,52447
39912,52439
39901,52445
39910,52447
39915,52447
39897,52459
39926,52483
39927,52512
39942,52529
39961,52561
39951,52589
39957,52592
39963,52613
39962,52609
39952,52604
39944,52589
39931,52562
39946,52558
39945,52526
39932,52535
39928,52522
39932,52513
39938,52514
39914,52517
39943,52535
39928,52558
39938,52581
39964,52576
39954,52601
39957,52603
39955,52618
39972,52648
39967,52671
39973,52687
39998,52704
39993,52727
39985,52738
40015,52750
40003,52766
40013,52777
40020,52805
40027,52820
40020,52828
40032,52861
40035,52862
40036,52884
40039,52874
40047,52890
40048,52901
40054,52920
40034,52921
40064,52939
40046,52952
40050,52966
40057,52982
40069,52973
40073,52983
40077,52995
40063,53020
40087,53016
40078,53028
40073,53058
40074,53056
40079,53067
40100,53066
40087,53058
40075,53062
40096,53091
40099,53102
40104,53102
40102,53119
40110,53137
40110,53130
40116,53138
40123,53152
40105,53165
40120,53185
40114,53188
40127,53192
40116,53188
40132,53193
40137,53212
40134,53225
40139,53233
40144,53249
40140,53251
40137,53256
40158,53299
40149,53283
40146,53293
40154,53285
40144,53301
40152,53296
40160,53313
40159,53331
40163,53333
40156,53346
40171,53354
40168,53364
40186,53380
40178,53401
40185,53386
40203,53395
40164,53378
40168,53369
40135,53300
40123,53212
40002,52849
39928,52658
39908,52469
39875,52333
39848,52293
39835,52235
39826,52234
39835,52245
39841,52268
39862,52286
39872,52324
39875,52333
39898,52386
39923,52433
39903,52463
39907,52478
39890,52533
39915,52538
39929,52534
39937,52564
39944,52557
39932,52563
39951,52580
39957,52624
39963,52639
39967,52674
39974,52703
39990,52708
39983,52722
39989,52716
39968,52722
39959,52672
39959,52655
39944,52627
39944,52625
39948,52588
39937,52565
39930,52564
39941,52566
39942,52569
39958,52590
39942,52591
39972,52606
39956,52638
39960,52636
39969,52666
39964,52693
39971,52698
39989,52721
39986,52746
39994,52765
40004,52771
40022,52800
40018,52801
40019,52834
40011,52846
40015,52855
40035,52875
40033,52887
40031,52888
40043,52897
40042,52912
40060,52940
40060,52943
40061,52951
40052,52965
40060,52980
40073,52995
40042,53006
40078,52998
40088,53009
40068,53018
40081,53023
40078,53051
40088,53038
40079,53054
40085,53059
40075,53067
40095,53083
40090,53103
40096,53119
40112,53122
40093,53121
40100,53116
40103,53142
40103,53139
40110,53151
40120,53157
40103,53169
40130,53184
40125,53181
40118,53197
40124,53199
40129,53220
40125,53217
40132,53222
40141,53249
40141,53246
40133,53255
40147,53258
40146,53274
40142,53269
40134,53292
40148,53298
40153,53296
40152,53326
40167,53327
40164,53341
40168,53350
40164,53378
40171,53367
40183,53370
40175,53391
40177,53390
40182,53409
40189,53382
40168,53357
40117,53271
40092,53128
40030,52967
39966,52739
39928,52571
39873,52416
39845,52323
39853,52271
39832,52250
39832,52212
39830,52244
39826,52265
39853,52282
39842,52301
39871,52353
39877,52354
39891,52402
39896,52428
39915,52455
39909,52460
39898,52493
39909,52501
39914,52519
39922,52520
39916,52520
39919,52534
39936,52555
39944,52588
39960,52630
39967,52648
39958,52656
39960,52657
39964,52673
39955,52672
39958,52655
39965,52619
39956,52617
39947,52584
39931,52564
39939,52551
39943,52533
39931,52545
39936,52553
39945,52575
39941,52595
39939,52602
39960,52632
39970,52619
39967,52657
39974,52686
39992,52690
39980,52726
39977,52729
39996,52749
40010,52770
39995,52782
39997,52802
40009,52813
40026,52841
40007,52868
40038,52892
40048,52899
40043,52909
40037,52908
40051,52949
40040,52938
40043,52941
40039,52960
40051,52962
40056,52979
40058,53001
40076,52989
40065,53010
40088,53031
40061,53032
40070,53014
40071,53042
40079,53064
40081,53068
40077,53079
40099,53094
40101,53107
40094,53098
40096,53124
40104,53128
40110,53141
40102,53149
40108,53154
40110,53145
40114,53159
40124,53164
40110,53188
40113,53215
40125,53192
40120,53207
40121,53235
40140,53233
40160,53231
40142,53237
40149,53257
40134,53252
40139,53269
40141,53277
40141,53274
40139,53291
40133,53312
40152,53314
40162,53346
40157,53342
40159,53354
40165,53357
40162,53370
40168,53381
40179,53393
40177,53382
40173,53397
40157,53352
40137,53282
40078,53178
40034,52988
39971,52775
39925,52599
39893,52423
39841,52324
39832,52253
39815,52220
39819,52212
39813,52220
39811,52228
39829,52244
39837,52280
39841,52304
39861,52332
39844,52349
39888,52378
39883,52424
39886,52457
39884,52456
39913,52421
39908,52448
39901,52450
39908,52488
39917,52484
39912,52533
39946,52554
39910,52582
39942,52596
39956,52625
39976,52624
39959,52620
39905,52608
40034,52988
39935,52586
39921,52551
39918,52539
39918,52531
39911,52523
39909,52521
39926,52518
39937,52542
39927,52549
39935,52565
39941,52579
39930,52593
39940,52626
39940,52646
39968,52651
39969,52660
39974,52680
39968,52724
39969,52709
39983,52731
40003,52774
39987,52779
39993,52797
40017,52823
40007,52827
40010,52846
40023,52875
40011,52879
40039,52895
40039,52903
40044,52900
40034,52918
40036,52926
40034,52936
40035,52962
40052,52969
40038,52983
40055,52994
40064,52983
40067,53003
40062,53008
40063,53020
40048,53024
40070,53038
40069,53041
40086,53052
40077,53081
40084,53061
40087,53078
40080,53095
40090,53108
40091,53116
40080,53114
40081,53141
40104,53128
40112,53152
40092,53165
40109,53163
40105,53174
40103,53192
40112,53175
40110,53192
40122,53201
40108,53218
40120,53227
40122,53239
40130,53243
40120,53247
40123,53262
40133,53267
40126,53275
40143,53298
40125,53296
40136,53289
40145,53330
40149,53321
40140,53333
40150,53350
40161,53366
40156,53367
40161,53375
40166,53372
40156,53380
40153,53361
40141,53326
40118,53284
40092,53159
40020,53006
39957,52790
39923,52625
39895,52466
39855,52360
39853,52295
39842,52277
39823,52260
39839,52263
39853,52289
39852,52314
39868,52351
39882,52382
39891,52431
39908,52478
39912,52487
39919,52540
39919,52562
39948,52580
39947,52591
39951,52604
39947,52602
39962,52642
39963,52659
39966,52696
39977,52726
39995,52737
39992,52767
39984,52767
39999,52775
39994,52758
39972,52743
39970,52732
39973,52707
39961,52674
39952,52627
39944,52634
39935,52612
39945,52597
39941,52620
39943,52604
39952,52635
39946,52649
39956,52663
39972,52700
39984,52694
39976,52728
39978,52736
39990,52762
40001,52773
40000,52798
40021,52811
40023,52836
40021,52854
40036,52888
40035,52882
40029,52889
40035,52910
40049,52928
40049,52948
40048,52942
40042,52949
40058,52969
40059,52978
40070,52988
40068,52998
40070,53009
40064,53029
40081,53022
40066,53027
40086,53048
40088,53048
40089,53061
40083,53085
40102,53088
40083,53097
40106,53105
40108,53122
40101,53130
40094,53132
40103,53161
40115,53151
40113,53181
40110,53192
40107,53184
40109,53199
40131,53191
40123,53219
40121,53217
40128,53226
40121,53213
40124,53237
40129,53243
40134,53236
40139,53261
40123,53250
40145,53260
40134,53280
40153,53285
40134,53306
40143,53304
40146,53319
40152,53323
40168,53323
40160,53345
40165,53357
40173,53378
40159,53372
40170,53348
40166,53316
40117,53229
40067,53093
39998,52916
39945,52700
39901,52536
39869,52411
39853,52318
39840,52262
39809,52232
39824,52209
39831,52226
39843,52243
39839,52270
39854,52320
39879,52320
39872,52355
39881,52384
39890,52405
39902,52424
39910,52445
39913,52449
39919,52457
39906,52488
39915,52483
39920,52492
39932,52510
39928,52512
39931,52554
39946,52594
39964,52619
39961,52632
39955,52645
39969,52648
39956,52641
39940,52623
39950,52602
39945,52564
39941,52519
39929,52542
39934,52534
39929,52532
39942,52555
39947,52561
39935,52559
39945,52590
39960,52599
39987,52628
39979,52647
39977,52645
39959,52658
39962,52685
39969,52708
39986,52724
39989,52741
39983,52759
40016,52778
40002,52814
40014,52816
40012,52831
40017,52848
40028,52863
40032,52871
40043,52885
40046,52903
40042,52904
40041,52925
40060,52944
40041,52951
40044,52947
40052,52966
40073,52966
40064,52988
40052,53004
40071,53007
40066,53004
40073,53019
40084,53039
40090,53061
40084,53052
40078,53051
40078,53069
40101,53082
40101,53090
40112,53089
40089,53091
40092,53114
40106,53143
40101,53133
40098,53142
40123,53141
40111,53163
40114,53168
40114,53173
40117,53191
40140,53195
40126,53204
40119,53209
40122,53228
40123,53236
40141,53226
40135,53256
40135,53262
40135,53257
40145,53278
40137,53297
40134,53285
40163,53317
40171,53313
40164,53325
40163,53328
40155,53341
40185,53354
40166,53357
40175,53367
40175,53367
40161,53369
40158,53297
40126,53246
40082,53091
40011,52906
39963,52709
39905,52546
39873,52383
39866,52289
39829,52234
39821,52207
39834,52201
39813,52206
39835,52231
39845,52256
39854,52279
39869,52294
39886,52348
39887,52362
39867,52391
39898,52432
39901,52432
39917,52452
39917,52458
39912,52466
39912,52462
39910,52461
39925,52489
39919,52485
39935,52539
39943,52574
39951,52584
39953,52606
39955,52625
39964,52634
39952,52613
39955,52596
39973,52588
39942,52563
39925,52549
39929,52540
39930,52518
39929,52514
39941,52505
39934,52504
39917,52518
39938,52529
39937,52557
39945,52558
39955,52591
39959,52583
39965,52631
39973,52629
39958,52661
39985,52675
39977,52701
39989,52704
39989,52730
40011,52725
40001,52753
40005,52785
40001,52784
40009,52790
40019,52836
40023,52824
40032,52838
40028,52854
40036,52860
40028,52869
40045,52898
40053,52902
40050,52913
40046,52925
40071,52933
40066,52939
40053,52946
40049,52955
40065,52972
40058,52980
40060,53001
40084,52999
40071,53013
40079,53020
40073,53024
40094,53019
40097,53033
40088,53046
40083,53075
40091,53060
40091,53061
40097,53070
40092,53096
40101,53091
40092,53103
40086,53119
40117,53120
40110,53126
40099,53120
40107,53141
40129,53148
40113,53152
40121,53166
40123,53170
40107,53172
40126,53194
40106,53178
40114,53205
40131,53203
40139,53243
40139,53237
40158,53246
40140,53258
40134,53266
40161,53273
40150,53299
40150,53307
40161,53310
40129,53292
40120,53238
40086,53132
40076,53002
39995,52807
39939,52625
39905,52479
39876,52354
39839,52265
39839,52229
39833,52214
39835,52227
39841,52231
39839,52253
39865,52275
39869,52334
39888,52364
39903,52388
39895,52433
39912,52491
39926,52477
39915,52503
39927,52526
39940,52531
39948,52550
39960,52581
39948,52581
39970,52613
39982,52675
39976,52684
39995,52709
39996,52715
39987,52746
39989,52713
39990,52691
39982,52674
39978,52638
39965,52613
39960,52599
39950,52572
39934,52551
39955,52564
39952,52562
39963,52565
39957,52566
39968,52600
39960,52627
39947,52622
39977,52669
39981,52680
39975,52720
39995,52710
40008,52719
40006,52768
40016,52795
40011,52803
40030,52818
40034,52840
40020,52848
40032,52870
40048,52890
40036,52900
40069,52916
40051,52932
40020,52930
40053,52943
40061,52941
40055,52975
40077,52961
40065,52985
40072,52999
40083,53007
40075,53016
40095,53029
40074,53036
40094,53040
40088,53056
40088,53051
40080,53070
40097,53078
40094,53086
40102,53102
40103,53112
40123,53099
40123,53128
40107,53117
40111,53152
40117,53139
40115,53157
40120,53163
40127,53171
40129,53179
40134,53182
40127,53202
40132,53202
40130,53204
40133,53201
40143,53212
40145,53225
40138,53241
40144,53243
40139,53256
40144,53277
40130,53255
40166,53273
40152,53310
40162,53303
40162,53312
40170,53331
40178,53342
40179,53336
40165,53316
40138,53268
40101,53161
40064,52995
39988,52801
39935,52606
39903,52442
39861,52319
39832,52243
39821,52185
39816,52168
39814,52161
39826,52175
39825,52169
39843,52197
39834,52219
39852,52256
39865,52259
39865,52292
39892,52313
39886,52327
39877,52346
39883,52364
39899,52368
39895,52369
39890,52380
39912,52369
39901,52392
39911,52420
39925,52462
39925,52494
39956,52507
39936,52517
39924,52543
39944,52547
39945,52521
39927,52514
39933,52498
39933,52485
39915,52462
39921,52443
39924,52443
39922,52431
39916,52446
39920,52441
39928,52448
39929,52479
39929,52479
39944,52496
39932,52533
39949,52532
39950,52536
39967,52566
39960,52587
39978,52603
39979,52629
39979,52654
39987,52681
39994,52675
39989,52685
40003,52719
40017,52729
40007,52742
40020,52759
40019,52790
40021,52795
40022,52810
40028,52820
40045,52832
40043,52838
40041,52850
40039,52858
40059,52890
40058,52886
40070,52899
40065,52911
40060,52914
40056,52922
40059,52945
40058,52969
40065,52948
40080,52955
40075,52996
40077,52983
40078,52993
40089,53003
40088,53024
40089,53016
40088,53036
40095,53052
40103,53052
40108,53058
40095,53068
40093,53078
40115,53085
40116,53098
40102,53113
40110,53121
40119,53117
40124,53135
40125,53140
40129,53136
40143,53167
40135,53174
40132,53180
40136,53194
40147,53200
40142,53200
40133,53208
40152,53212
40142,53226
40147,53240
40150,53235
40157,53252
40164,53266
40150,53280
40160,53291
40162,53297
40176,53303
40157,53325
40169,53314
40164,53336
40183,53334
40177,53340
40157,53266
40129,53177
40065,53044
40017,52837
39966,52632
39915,52479
39877,52350
39865,52240
39813,52213
39831,52178
39832,52170
39833,52184
39840,52189
39844,52211
39859,52259
39879,52304
39889,52316
39910,52358
39894,52380
39902,52398
39916,52411
39922,52438
39923,52439
39925,52454
39908,52454
39923,52460
39934,52469
39959,52510
39948,52533
39971,52582
39966,52587
39969,52592
39966,52608
39978,52607
39959,52584
39962,52569
39949,52539
39922,52520
39947,52482
39934,52493
39938,52472
39927,52460
39940,52479
39941,52471
39943,52492
39947,52511
39952,52525
39957,52512
39969,52563
39970,52583
39975,52599
39979,52607
39970,52621
39991,52637
39996,52657
40008,52683
39990,52693
40016,52717
40008,52722
40010,52753
40021,52749
40026,52800
40025,52796
40026,52769
40037,52797
40048,52811
40048,52848
40052,52845
40044,52858
40048,52875
40062,52885
40062,52900
40077,52894
40076,52902
40086,52915
40076,52933
40090,52931
40068,52959
40068,52966
40085,52977
40075,52979
40098,52974
40092,52998
40089,53011
40092,53000
40097,53011
40091,53046
40090,53037
40108,53032
40107,53038
40114,53063
40099,53071
40112,53067
40115,53078
40118,53089
40116,53104
40134,53117
40134,53132
40136,53126
40136,53124
40127,53154
40134,53168
40138,53170
40131,53172
40147,53180
40159,53190
40145,53199
40157,53215
40153,53243
40162,53233
40168,53245
40176,53265
40150,53266
40166,53286
40164,53295
40170,53296
40177,53291
40184,53288
40165,53258
40116,53190
40087,53063
40048,52893
39980,52692
39921,52522
39892,52365
39864,52262
39842,52198
39851,52169
39841,52142
39834,52152
39843,52151
39842,52183
39848,52206
39868,52237
39877,52270
39898,52281
39888,52334
39902,52335
39917,52353
39910,52379
39927,52392
39919,52393
39927,52407
39913,52420
39929,52441
39938,52470
39937,52486
39968,52501
39960,52540
39962,52551
39980,52565
39987,52553
39971,52560
39957,52555
39947,52517
39957,52498
39945,52481
39941,52452
39938,52473
39941,52457
39938,52465
39935,52461
39961,52468
39945,52478
39954,52504
39953,52501
39967,52525
39966,52545
39989,52545
39986,52586
39975,52593
39983,52611
40008,52634
39995,52651
40007,52654
40012,52683
40011,52708
40023,52732
40033,52740
40041,52758
40034,52772
40040,52778
40049,52805
40054,52805
40066,52813
40053,52840
40056,52843
40059,52860
40062,52867
40069,52874
40079,52903
40076,52899
40085,52908
40077,52913
40074,52924
40096,52931
40079,52946
40096,52967
40090,52968
40085,52980
40107,52981
40093,52989
40110,53005
40120,53015
40120,53016
40123,53026
40120,53040
40121,53053
40120,53052
40125,53068
40142,53078
40136,53075
40133,53090
40133,53117
40140,53115
40134,53128
40142,53131
40144,53137
40150,53140
40140,53159
40153,53172
40151,53173
40162,53177
40163,53183
40173,53187
40159,53200
40163,53217
40157,53231
40162,53237
40177,53264
40174,53269
40183,53277
40189,53278
40200,53297
40196,53280
40185,53312
40208,53333
40177,53305
40176,53281
40141,53200
40101,53062
40059,52883
39979,52683
39949,52520
39900,52364
39872,52259
39844,52199
39848,52138
39847,52119
39843,52121
39842,52135
39864,52170
39857,52171
39886,52215
39900,52233
39898,52261
39911,52283
39917,52316
39915,52314
39935,52335
39926,52333
39914,52338
39923,52338
39925,52343
39922,52382
39939,52382
39931,52413
39954,52444
39970,52471
39977,52495
39993,52499
39985,52501
39976,52503
39963,52508
39958,52476
39955,52473
39955,52452
39951,52418
39945,52427
39954,52408
39945,52419
39954,52411
39962,52418
39958,52440
39964,52437
39963,52458
39976,52475
39965,52511
39985,52525
39997,52537
39998,52545
39992,52574
40003,52613
40005,52600
40017,52629
40025,52655
40028,52654
40033,52673
40033,52699
40029,52701
40052,52719
40052,52728
40052,52751
40068,52765
40064,52772
40066,52783
40063,52802
40056,52816
40084,52822
40069,52850
40088,52867
40078,52874
40106,52859
40082,52864
40092,52868
40093,52888
40097,52906
40117,52924
40107,52929
40106,52943
40116,52951
40129,52969
40145,52979
40156,52982
40108,52989
40110,52995
40127,52997
40121,53012
40143,53010
40136,53040
40137,53037
40149,53044
40132,53056
40151,53063
40153,53084
40152,53086
40138,53105
40153,53113
40153,53117
40166,53113
40169,53128
40178,53126
40162,53149
40161,53134
40167,53167
40166,53175
40181,53178
40180,53199
40178,53209
40189,53207
40170,53212
40204,53241
40178,53240
40193,53243
40194,53261
40198,53257
40217,53288
40191,53277
40204,53260
40164,53184
40146,53071
40077,52915
40031,52717
39978,52536
39939,52419
39914,52290
39881,52223
39886,52190
39875,52178
39875,52182
39892,52197
39893,52226
39909,52251
39930,52292
39928,52318
39941,52372
39951,52405
39964,52416
39977,52450
39992,52455
39981,52480
39970,52487
39978,52488
39988,52504
40006,52539
40007,52576
40038,52607
40033,52620
40039,52658
40030,52657
40048,52642
40047,52644
40028,52634
40032,52613
40020,52584
40001,52556
40004,52530
39999,52515
39984,52499
39993,52509
39987,52499
39987,52511
40001,52514
40019,52535
40004,52548
40009,52572
40025,52594
40031,52614
40030,52623
40048,52653
40051,52688
40050,52693
40062,52721
40060,52723
40074,52752
40079,52759
40081,52767
40094,52783
40084,52798
40100,52809
40089,52825
40093,52841
40104,52856
40102,52871
40102,52865
40111,52873
40102,52882
40114,52895
40118,52906
40118,52906
40114,52931
40127,52929
40132,52944
40125,52957
40144,52958
40139,52973
40132,52980
40134,52981
40149,53005
40153,53006
40138,53029
40158,53034
40166,53040
40153,53037
40158,53061
40165,53065
40172,53086
40173,53074
40181,53095
40165,53104
40182,53101
40180,53110
40182,53121
40169,53137
40179,53128
40204,53152
40201,53146
40200,53172
40196,53166
40188,53192
40195,53170
40200,53184
40210,53220
40200,53214
40217,53232
40242,53253
40221,53256
40216,53264
40226,53280
40223,53267
40222,53276
40216,53263
40216,53238
40185,53170
40141,53053
40094,52881
40022,52664
39987,52536
39950,52373
39915,52269
39933,52212
39899,52188
39892,52153
39908,52169
39903,52161
39918,52183
39930,52225
39937,52229
39946,52273
39944,52307
39956,52347
39959,52356
39963,52371
39970,52386
39981,52392
39991,52390
39976,52413
39996,52429
39977,52441
40004,52457
40008,52482
40034,52510
40028,52535
40016,52545
40045,52572
40027,52578
40030,52583
40016,52538
40020,52536
40021,52515
39999,52501
40020,52500
39993,52474
40009,52469
40004,52457
40008,52480
40018,52487
40013,52503
40024,52514
40030,52538
40023,52548
40048,52564
40032,52587
40057,52600
40056,52608
40072,52653
40083,52652
40067,52685
40072,52710
40071,52707
40084,52735
40102,52738
40087,52760
40100,52774
40111,52786
40108,52817
40106,52821
40131,52830
40129,52830
40117,52861
40133,52864
40149,52886
40138,52912
40131,52910
40152,52909
40140,52923
40138,52940
40141,52938
40165,52943
40154,52954
40147,52966
40165,52971
40172,52998
40163,53000
40164,53009
40177,53027
40175,53032
40194,53057
40180,53092
40191,53080
40186,53063
40184,53081
40195,53057
40196,53100
40198,53093
40191,53113
40196,53117
40199,53149
40203,53126
40218,53166
40231,53159
40211,53155
40218,53175
40203,53192
40195,53187
40208,53209
40214,53197
40212,53225
40235,53217
40237,53227
40233,53234
40222,53251
40239,53276
40245,53280
40238,53296
40257,53283
40261,53309
40256,53318
40258,53314
40243,53276
40210,53196
40187,53095
40145,52944
40061,52723
40011,52537
39987,52411
39961,52279
39935,52198
39910,52166
39904,52161
39915,52146
39918,52164
39915,52177
39941,52210
39946,52241
39951,52260
39962,52276
39971,52321
39973,52358
39972,52345
39992,52383
39983,52381
39987,52392
40006,52376
40009,52389
39998,52397
39998,52419
40018,52446
40025,52482
40019,52505
40025,52535
40041,52554
40058,52544
40050,52571
40050,52554
40041,52535
40044,52525
40022,52515
40032,52489
40029,52473
40031,52474
40014,52451
40015,52468
40031,52485
40042,52477
40029,52501
40051,52506
40040,52532
40037,52551
40067,52581
40049,52584
40059,52601
40078,52620
40073,52637
40079,52646
40086,52677
40108,52691
40097,52720
40104,52721
40109,52742
40107,52741
40117,52773
40124,52781
40122,52793
40142,52830
40118,52833
40143,52838
40149,52867
40145,52845
40148,52872
40133,52876
40166,52883
40159,52908
40156,52904
40164,52916
40173,52941
40171,52945
40178,52952
40164,52964
40185,52973
40197,52981
40182,53000
40188,52995
40204,53010
40187,53030
40187,53032
40197,53036
40189,53040
40212,53062
40207,53054
40209,53065
40197,53077
40190,53071
40230,53095
40206,53098
40221,53112
40210,53112
40221,53105
40217,53149
40225,53151
40233,53149
40230,53174
40222,53179
40238,53183
40235,53176
40238,53200
40240,53205
40249,53215
40238,53229
40243,53224
40249,53243
40253,53255
40263,53262
40257,53285
40261,53277
40257,53286
40263,53311
40266,53304
40269,53303
40276,53319
40270,53322
40260,53311
40254,53274
40219,53164
40166,53029
40111,52842
40058,52630
40018,52503
39992,52362
39954,52292
39957,52241
39942,52209
39942,52233
39950,52253
39979,52268
39970,52303
39972,52344
39999,52360
39990,52418
40029,52432
40017,52473
40031,52502
40051,52497
40056,52531
40048,52555
40043,52547
40056,52582
40072,52591
40084,52606
40078,52636
40086,52658
40099,52693
40107,52726
40106,52727
40110,52730
40101,52702
40090,52689
40084,52646
40082,52624
40086,52619
40058,52595
40065,52573
40063,52572
40061,52558
40063,52577
40064,52585
40078,52597
40079,52616
40086,52633
40096,52644
40097,52686
40111,52684
40100,52712
40120,52720
40104,52740
40127,52745
40125,52772
40135,52793
40140,52813
40151,52836
40130,52845
40151,52864
40145,52860
40162,52896
40169,52910
40175,52919
40167,52922
40185,52936
40173,52937
40182,52953
40182,52957
40201,52977
40181,52985
40184,52999
40192,52991
40193,52998
40198,53014
40195,53071
40194,53048
40218,53061
40209,53058
40207,53067
40212,53039
40208,53099
40216,53099
40224,53113
40248,53128
40214,53122
40224,53125
40236,53148
40231,53146
40231,53170
40238,53144
40244,53173
40251,53182
40245,53181
40239,53221
40242,53205
40254,53186
40262,53205
40260,53227
40253,53245
40267,53238
40274,53263
40250,53273
40265,53281
40256,53282
40304,53295
40295,53295
40287,53325
40260,53329
40290,53345
40279,53362
40279,53363
40278,53348
40282,53320
40241,53232
40215,53099
40150,52950
40097,52747
40033,52576
39997,52435
39999,52312
39976,52247
39954,52240
39952,52225
39954,52228
39949,52237
39969,52275
39976,52291
39984,52330
39996,52357
40008,52386
40016,52416
40011,52437
40015,52460
40022,52465
40049,52464
40027,52474
40043,52483
40030,52499
40051,52501
40073,52530
40060,52567
40076,52601
40083,52621
40080,52631
40104,52646
40097,52660
40078,52638
40066,52639
40059,52617
40050,52610
40071,52574
40063,52571
40058,52559
40069,52556
40060,52554
40055,52553
40055,52573
40066,52572
40064,52581
40083,52600
40082,52642
40091,52644
40101,52675
40092,52680
40099,52703
40108,52722
40120,52730
40116,52760
40118,52765
40128,52794
40147,52808
40150,52814
40133,52833
40143,52865
40153,52858
40160,52883
40165,52913
40165,52915
40173,52925
40174,52935
40171,52947
40160,52951
40185,52963
40186,52973
40177,52984
40195,52997
40187,53012
40194,53023
40189,53021
40200,53037
40207,53057
40209,53056
40208,53071
40215,53066
40209,53071
40216,53082
40221,53093
40215,53094
40211,53118
40235,53130
40221,53120
40228,53139
40231,53151
40228,53133
40235,53161
40234,53170
40239,53181
40246,53196
40244,53188
40244,53206
40255,53228
40255,53230
40253,53239
40259,53241
40248,53247
40253,53246
40254,53263
40263,53267
40275,53292
40272,53295
40276,53310
40277,53304
40275,53324
40275,53341
40299,53355
40298,53369
40295,53376
40281,53372
40281,53376
40273,53335
40242,53254
40186,53129
40175,52963
40080,52741
40049,52588
40004,52440
39976,52346
39959,52268
39952,52245
39943,52212
39938,52229
39952,52239
39954,52258
39963,52290
39980,52309
39978,52343
40008,52376
40011,52399
39999,52423
40014,52429
40021,52464
40030,52465
40017,52476
40040,52469
40021,52483
40034,52493
40038,52494
40053,52543
40054,52563
40067,52586
40060,52613
40078,52626
40079,52634
40080,52642
40083,52633
40061,52621
40057,52578
40054,52572
40061,52561
40037,52549
40053,52551
40038,52531
40046,52548
40047,52533
40048,52548
40058,52568
40064,52589
40062,52599
40085,52629
40076,52643
40087,52646
40085,52664
40090,52699
40101,52689
40105,52731
40127,52746
40118,52767
40124,52769
40119,52784
40146,52811
40130,52824
40148,52834
40144,52859
40143,52861
40155,52865
40157,52887
40163,52901
40155,52901
40147,52934
40168,52933
40164,52930
40168,52954
40172,52957
40174,52972
40185,52984
40194,53001
40183,53020
40183,53001
40191,53026
40197,53031
40168,53041
40189,53053
40196,53071
40194,53072
40210,53082
40204,53093
40225,53075
40212,53094
40214,53117
40222,53113
40213,53131
40224,53127
40214,53140
40225,53145
40222,53147
40224,53166
40238,53172
40242,53175
40230,53189
40244,53196
40255,53219
40254,53214
40246,53212
40254,53229
40269,53240
40256,53253
40255,53252
40248,53273
40248,53263
40183,53001
40256,53315
40263,53338
40262,53299
40257,53308
40263,53319
40279,53347
40286,53351
40271,53363
40276,53361
40270,53358
40266,53298
40251,53236
40233,53098
40141,52940
40075,52727
40009,52591
39969,52462
39959,52347
39951,52300
39961,52279
39946,52277
39975,52287
39975,52324
39983,52334
39988,52385
40004,52427
40022,52460
40038,52500
40048,52533
40064,52564
40045,52596
40070,52604
40061,52614
40080,52622
40063,52652
40094,52667
40099,52683
40115,52731
40118,52740
40118,52792
40117,52793
40118,52806
40123,52806
40122,52787
40097,52766
40093,52736
40082,52697
40079,52689
40065,52682
40080,52649
40069,52646
40064,52642
40078,52632
40073,52655
40077,52668
40076,52700
40085,52708
40101,52715
40112,52753
40116,52777
40131,52771
40117,52804
40125,52814
40119,52828
40137,52841
40153,52874
40151,52880
40131,52896
40155,52914
40174,52938
40176,52937
40167,52955
40170,52950
40175,52972
40184,52986
40181,52996
40180,53012
40183,52994
40187,53018
40197,53041
40195,53037
40199,53059
40199,53058
40201,53068
40210,53080
40200,53101
40208,53091
40212,53113
40210,53125
40217,53121
40209,53118
40216,53130
40216,53152
40223,53156
40216,53190
40221,53173
40236,53179
40228,53193
40233,53204
40245,53211
40244,53203
40235,53227
40241,53222
40245,53226
40238,53249
40243,53246
40255,53262
40252,53261
40254,53269
40257,53268
40267,53270
40266,53299
40252,53304
40274,53333
40281,53318
40258,53347
40265,53341
40292,53359
40295,53374
40287,53379
40282,53382
40272,53376
40265,53335
40234,53248
40184,53102
40139,52914
40064,52719
40036,52571
39996,52444
39964,52327
39930,52261
39930,52243
39934,52221
39935,52225
39955,52247
39957,52264
39967,52306
39961,52325
39986,52343
39972,52372
39998,52401
39999,52413
40002,52430
40022,52446
40016,52454
40006,52457
40013,52469
40009,52474
40020,52478
40036,52494
40045,52523
40048,52558
40055,52590
40061,52601
40065,52622
40055,52637
40078,52627
40059,52606
40057,52586
40045,52591
40056,52573
40039,52552
40046,52561
40047,52535
40036,52526
40037,52526
40046,52552
40035,52562
40041,52588
40053,52593
40043,52604
40064,52623
40066,52636
40072,52645
40079,52674
40078,52680
40085,52707
40099,52723
40105,52759
40090,52758
40111,52776
40124,52787
40134,52813
40129,52837
40134,52839
40144,52860
40141,52885
40142,52878
40127,52893
40139,52920
40151,52939
40149,52924
40164,52925
40167,52961
40171,52963
40163,52964
40174,52967
40157,52993
40175,52993
40175,53014
40188,53013
40173,53033
40194,53032
40191,53062
40192,53046
40194,53070
40192,53073
40197,53073
40185,53087
40194,53089
40194,53093
40205,53119
40218,53115
40199,53123
40220,53134
40219,53140
40215,53141
40235,53169
40235,53175
40219,53178
40241,53184
40222,53201
40224,53207
40225,53195
40225,53207
40240,53243
40238,53247
40257,53254
40230,53251
40252,53281
40233,53260
40236,53266
40246,53275
40253,53280
40251,53298
40249,53306
40275,53336
40263,53317
40265,53336
40267,53349
40283,53370
40270,53364
40286,53376
40274,53359
40236,53324
40240,53238
40176,53112
40136,52949
40083,52774
39985,52434
39955,52290
39939,52233
39927,52228
39937,52233
39935,52234
39941,52241
39959,52269
39968,52320
39967,52347
40008,52367
40017,52393
39996,52434
39982,52445
40002,52472
39995,52479
40004,52495
40003,52503
40022,52509
40033,52532
40032,52530
40028,52565
40042,52581
40055,52602
40063,52638
40071,52652
40081,52667
40065,52663
40071,52652
40056,52655
40059,52615
40035,52588
40022,52568
40031,52552
40034,52541
40016,52528
40031,52520
40021,52543
40032,52544
40026,52561
40040,52575
40048,52576
40064,52597
40054,52617
40063,52630
40060,52654
40068,52679
40067,52682
40087,52717
40086,52732
40091,52741
40089,52747
40114,52777
40103,52786
40107,52798
40115,52803
40120,52830
40118,52846
40132,52860
40131,52854
40138,52863
40137,52900
40133,52894
40131,52914
40138,52907
40145,52940
40154,52926
40156,52952
40167,52956
40154,52967
40161,52984
40175,52985
40169,52976
40151,53008
40154,52995
40179,53027
40156,53017
40180,53034
40179,53046
40170,53049
40180,53061
40179,53074
40196,53065
40190,53080
40198,53091
40200,53103
40202,53110
40211,53116
40184,53117
40195,53132
40201,53135
40216,53144
40209,53150
40214,53157
40213,53171
40219,53196
40203,53202
40205,53201
40209,53198
40219,53223
40218,53225
40238,53261
40219,53248
40230,53259
40231,53276
40234,53264
40239,53288
40252,53289
40250,53303
40252,53306
40246,53290
40218,53259
40196,53161
40139,53045
40110,52832
40027,52637
39988,52492
39950,52350
39927,52255
39910,52210
39907,52201
39908,52176
39911,52185
39920,52203
39939,52251
39925,52259
39946,52306
39954,52325
39978,52357
39977,52384
39968,52394
39980,52412
39980,52430
39985,52446
40002,52445
39990,52440
39998,52478
40005,52490
40012,52516
40030,52527
40026,52580
40037,52598
40049,52605
40036,52620
40034,52611
40037,52593
40007,52588
40004,52554
40015,52538
40007,52513
40003,52487
39998,52502
39999,52475
40001,52487
40010,52517
40014,52506
40013,52513
40015,52534
40009,52547
40038,52566
40049,52580
40041,52603
40052,52626
40057,52625
40051,52657
40048,52672
40062,52693
40067,52710
40069,52724
40085,52756
40092,52753
40087,52780
40105,52783
40101,52810
40108,52828
40089,52845
40111,52850
40109,52843
40109,52866
40124,52865
40130,52896
40128,52904
40138,52898
40135,52905
40142,52926
40131,52936
40137,52965
40139,52961
40144,52962
40152,52971
40161,52998
40156,52990
40157,53005
40157,53028
40155,53015
40163,53019
40166,53035
40166,53046
40162,53055
40171,53055
40170,53075
40176,53096
40188,53097
40188,53108
40175,53097
40168,53128
40193,53136
40199,53148
40203,53156
40186,53144
40199,53164
40207,53174
40209,53191
40200,53177
40210,53185
40205,53188
40208,53204
40202,53212
40225,53224
40224,53249
40228,53250
40222,53260
40224,53275
40215,53276
40226,53289
40235,53304
40217,53311
40234,53317
40236,53300
40223,53263
40199,53182
40130,53026
40076,52823
40026,52633
39971,52454
39930,52328
39896,52229
39890,52194
39879,52146
39874,52164
39883,52147
39874,52169
39893,52184
39906,52205
39897,52226
39905,52263
39939,52270
39932,52315
39948,52343
39936,52355
39949,52329
39951,52327
39943,52365
39948,52372
39955,52374
39967,52405
39957,52415
39979,52440
39997,52492
39992,52492
40022,52495
40008,52512
39978,52503
39968,52504
39996,52477
39983,52460
39965,52442
39987,52451
39970,52430
39979,52417
39964,52403
39965,52402
39972,52418
39979,52442
39980,52435
39981,52466
39984,52469
39987,52492
40006,52515
40008,52536
40011,52547
40017,52559
40014,52597
40022,52587
40024,52616
40042,52626
40041,52643
40043,52647
40047,52686
40061,52702
40072,52691
40056,52728
40062,52743
40053,52749
40080,52774
40080,52769
40086,52803
40073,52795
40092,52813
40094,52810
40100,52826
40091,52848
40082,52856
40111,52850
40088,52872
40100,52899
40121,52874
40106,52919
40114,52914
40127,52924
40125,52929
40133,52937
40134,52955
40136,52966
40131,52970
40127,52967
40142,52997
40144,53005
40139,52995
40151,53006
40134,53014
40165,53029
40150,53051
40156,53041
40163,53070
40150,53072
40162,53070
40158,53078
40158,53083
40163,53097
40167,53109
40175,53120
40171,53130
40168,53142
40179,53153
40185,53163
40181,53152
40191,53173
40186,53161
40182,53200
40187,53197
40199,53231
40205,53226
40201,53233
40193,53238
40215,53238
40209,53245
40204,53266
40210,53255
40211,53279
40212,53282
40199,53279
40214,53274
40185,53234
40167,53137
40109,52996
40055,52788
39991,52594
39957,52435
39910,52315
39900,52239
39884,52181
39874,52172
39871,52154
39867,52173
39879,52181
39880,52213
39904,52246
39911,52292
39920,52327
39936,52352
39947,52385
39963,52401
39956,52411
39980,52428
39962,52444
39967,52461
39978,52460
39968,52483
39985,52497
40010,52539
40011,52568
40002,52590
40015,52592
40003,52606
40020,52608
39998,52584
40020,52580
40009,52544
40000,52531
39980,52506
39984,52495
39983,52471
39955,52459
39968,52459
39974,52467
39976,52467
39978,52489
39992,52522
39992,52509
39998,52542
40010,52562
40005,52556
40007,52583
40010,52608
40048,52630
40030,52634
40031,52657
40025,52673
40052,52695
40067,52712
40047,52736
40050,52744
40063,52762
40071,52781
40066,52766
40080,52804
40082,52814
40076,52828
40089,52844
40086,52851
40082,52870
40097,52875
40108,52895
40114,52902
40108,52894
40099,52900
40117,52932
40116,52943
40122,52926
40127,52953
40124,52975
40122,52983
40134,52988
40134,52998
40135,53008
40122,53008
40136,53026
40135,53032
40157,53038
40140,53054
40139,53056
40139,53077
40154,53080
40146,53085
40155,53091
40152,53113
40152,53087
40156,53116
40160,53116
40156,53132
40180,53150
40169,53134
40164,53152
40174,53173
40203,53184
40201,53188
40181,53190
40184,53209
40184,53212
40187,53228
40201,53232
40207,53242
40197,53257
40202,53287
40206,53279
40209,53282
40219,53291
40207,53305
40202,53299
40198,53277
40186,53236
40157,53127
40105,52983
40038,52758
39976,52589
39940,52405
39910,52267
39864,52194
39855,52149
39853,52135
39862,52117
39858,52139
39860,52134
39865,52153
39871,52190
39891,52209
39908,52238
39894,52257
39921,52293
39911,52309
39930,52313
39929,52333
39935,52326
39945,52344
39932,52371
39948,52387
39950,52409
39954,52404
39957,52456
39969,52438
39986,52480
39987,52504
39977,52494
39976,52498
39976,52457
39973,52449
39968,52435
39976,52406
39952,52403
39945,52397
39915,52390
39929,52402
39920,52379
39949,52404
39955,52420
39965,52431
39970,52445
39970,52482
39982,52491
39985,52497
39993,52506
40002,52536
39990,52537
40000,52559
40013,52577
40017,52616
40020,52622
40021,52629
40032,52667
40036,52681
40049,52675
40037,52708
40052,52718
40058,52731
40059,52762
40049,52765
40068,52779
40072,52784
40062,52794
40074,52811
40074,52804
40085,52830
40084,52833
40096,52854
40080,52864
40086,52859
40089,52889
40099,52888
40112,52895
40099,52915
40106,52912
40109,52925
40101,52945
40114,52957
40104,52955
40128,52964
40128,52969
40117,52995
40123,52990
40124,53009
40149,53018
40158,53028
40139,53035
40137,53045
40153,53055
40155,53072
40143,53072
40147,53089
40137,53082
40160,53113
40156,53108
40157,53102
40159,53120
40172,53128
40169,53151
40156,53151
40166,53153
40176,53163
40178,53174
40186,53184
40183,53211
40181,53220
40182,53216
40189,53233
40206,53236
40197,53253
40215,53251
40205,53259
40196,53270
40190,53257
40189,53236
40167,53160
40106,53052
40070,52862
39987,52659
39959,52490
39902,52339
39877,52219
39864,52146
39842,52109
39840,52089
39859,52112
39841,52100
39860,52120
39864,52147
39870,52196
39903,52212
39886,52221
39920,52271
39911,52292
39926,52302
39931,52333
39942,52331
39927,52336
39930,52321
39933,52323
39929,52359
39945,52369
39940,52409
39952,52445
39947,52469
39985,52483
39975,52488
39977,52493
39985,52490
39978,52479
39958,52461
39957,52442
39948,52415
39942,52405
39942,52393
39940,52377
39960,52375
39942,52388
39961,52378
39959,52403
39954,52412
39965,52423
39963,52432
39985,52454
39966,52475
39981,52500
39992,52523
39980,52526
39994,52552
40006,52568
40005,52582
40016,52610
40016,52628
40034,52656
40032,52662
40033,52680
40022,52673
40054,52697
40048,52722
40060,52730
40061,52736
40067,52745
40067,52764
40064,52771
40069,52779
40076,52797
40077,52818
40076,52820
40092,52830
40086,52835
40110,52842
40095,52861
40099,52872
40109,52875
40104,52891
40105,52894
40107,52907
40116,52908
40111,52931
40108,52936
40117,52937
40120,52943
40120,52956
40112,52961
40134,52967
40132,52975
40142,52993
40140,53002
40130,52993
40144,53002
40140,53039
40151,53038
40157,53043
40148,53051
40151,53064
40159,53064
40150,53077
40160,53088
40168,53099
40159,53108
40160,53130
40175,53119
40177,53129
40188,53159
40178,53156
40166,53180
40191,53167
40188,53166
40181,53191
40199,53204
40192,53194
40198,53207
40184,53239
40197,53232
40202,53250
40209,53254
40212,53261
40215,53285
40220,53276
40207,53270
40190,53230
40167,53164
40139,53034
40072,52859
40009,52642
39968,52503
39945,52351
39894,52257
39893,52225
39877,52158
39874,52164
39880,52183
39905,52182
39903,52191
39918,52261
39927,52294
39946,52347
39963,52377
39971,52403
39986,52446
39988,52490
39988,52502
40001,52527
40010,52519
40021,52531
40025,52568
40029,52607
40041,52624
40048,52664
40049,52647
40043,52665
40046,52669
40061,52684
40039,52649
40043,52644
40024,52596
40016,52568
40006,52561
40023,52538
40040,52548
40005,52535
39992,52540
40004,52531
40007,52555
40021,52578
40048,52592
40033,52621
40046,52623
40064,52653
40057,52684
40062,52704
40069,52693
40068,52736
40086,52747
40076,52767
40090,52788
40095,52807
40090,52811
40101,52840
40113,52840
40115,52863
40118,52878
40113,52881
40130,52893
40112,52901
40128,52910
40138,52925
40143,52934
40136,52938
40140,52969
40132,52967
40134,52983
40146,52987
40151,52993
40148,53009
40155,53004
40160,53020
40167,53029
40161,53051
40168,53049
40164,53056
40188,53071
40177,53088
40175,53096
40179,53104
40175,53104
40187,53121
40197,53135
40194,53137
40213,53133
40191,53151
40203,53158
40203,53162
40198,53175
40207,53177
40199,53198
40196,53187
40205,53205
40211,53218
40207,53219
40226,53233
40207,53238
40226,53242
40227,53249
40218,53254
40237,53261
40229,53297
40231,53290
40249,53303
40250,53306
40246,53306
40257,53324
40247,53334
40252,53337
40257,53350
40262,53376
40252,53392
40269,53387
40269,53385
40274,53396
40273,53391
40259,53362
40229,53287
40203,53174
40136,53018
40075,52810
40031,52625
39975,52480
39944,52352
39938,52263
39911,52232
39920,52209
39919,52207
39907,52210
39918,52242
39950,52271
39950,52315
39947,52341
39957,52376
39974,52408
39991,52427
40006,52444
40003,52461
40025,52472
40003,52488
40016,52497
40021,52501
40025,52512
40024,52519
40034,52543
40033,52573
40033,52597
40042,52622
40048,52655
40069,52660
40058,52640
40053,52648
40041,52640
40041,52616
40044,52595
40043,52594
40039,52584
40032,52565
40029,52573
40045,52557
40035,52565
40046,52581
40036,52607
40047,52606
40046,52633
40049,52634
40069,52653
40066,52697
40076,52701
40083,52718
40087,52723
40090,52745
40096,52760
40098,52773
40112,52795
40112,52813
40122,52831
40132,52841
40124,52866
40149,52885
40150,52914
40137,52912
40152,52908
40143,52936
40161,52948
40160,52968
40159,52953
40168,52971
40173,52990
40171,53004
40171,53003
40165,53016
40166,53035
40176,53028
40177,53033
40189,53041
40196,53051
40194,53063
40197,53079
40201,53084
40210,53086
40191,53121
40201,53115
40217,53122
40206,53143
40207,53157
40213,53149
40220,53156
40223,53158
40216,53180
40216,53173
40230,53185
40224,53189
40245,53212
40220,53230
40237,53231
40245,53244
40228,53242
40255,53269
40260,53257
40253,53272
40249,53266
40255,53299
40245,53294
40263,53299
40262,53306
40267,53311
40257,53334
40261,53328
40270,53344
40270,53353
40276,53363
40270,53382
40289,53387
40274,53392
40284,53407
40298,53399
40281,53409
40292,53420
40295,53417
40259,53374
40235,53308
40213,53199
40162,53055
40097,52841
40042,52671
40014,52552
39984,52431
39950,52354
39953,52307
39960,52306
39955,52302
39968,52324
39980,52383
39971,52394
40012,52442
40023,52481
40031,52518
40039,52542
40063,52582
40064,52608
40064,52636
40074,52652
40085,52645
40082,52660
40069,52695
40080,52698
40093,52714
40088,52747
40103,52757
40123,52818
40128,52850
40130,52816
40114,52792
40109,52779
40108,52772
40083,52754
40093,52733
40087,52705
40080,52696
40082,52678
40091,52687
40067,52693
40104,52684
40090,52701
40047,52713
39971,52394
40120,52748
40097,52777
40113,52784
40113,52798
40125,52843
40138,52844
40147,52867
40139,52886
40147,52906
40154,52912
40146,52919
40157,52954
40168,52970
40155,52962
40183,52976
40171,52984
40180,53009
40196,53006
40183,53019
40201,53025
40193,53042
40189,53048
40193,53055
40195,53075
40206,53073
40206,53094
40218,53109
40226,53104
40202,53116
40226,53128
40220,53142
40226,53156
40223,53143
40223,53169
40232,53180
40232,53159
40226,53195
40234,53182
40245,53211
40238,53203
40226,53214
40233,53225
40246,53244
40248,53245
40251,53253
40254,53257
40268,53259
40253,53268
40263,53276
40261,53283
40263,53300
40260,53285
40255,53297
40273,53325
40258,53326
40289,53336
40276,53358
40276,53340
40281,53362
40283,53368
40287,53379
40294,53380
40298,53391
40289,53400
40300,53424
40302,53425
40312,53437
40289,53441
40306,53445
40306,53442
40301,53418
40259,53363
40233,53252
40182,53081
40121,52903
40067,52731
40040,52597
40021,52503
40005,52396
39979,52354
39984,52354
39974,52371
39998,52397
40014,52416
40023,52452
40020,52485
40031,52519
40049,52559
40071,52587
40077,52632
40083,52655
40100,52661
40106,52696
40093,52691
40097,52704
40097,52728
40100,52743
40113,52754
40118,52786
40135,52825
40133,52845
40152,52851
40139,52877
40156,52867
40149,52865
40146,52847
40128,52819
40140,52810
40117,52776
40104,52757
40114,52767
40111,52753
40116,52753
40111,52746
40110,52756
40130,52764
40119,52782
40126,52800
40121,52820
40139,52842
40141,52864
40148,52871
40154,52899
40149,52919
40172,52926
40171,52934
40174,52940
40181,52961
40183,53000
40202,53017
40211,53011
40191,53029
40204,53063
40212,53054
40199,53078
40204,53071
40197,53081
40210,53118
40232,53129
40229,53128
40217,53133
40224,53132
40240,53143
40233,53150
40233,53172
40240,53177
40237,53189
40233,53189
40247,53195
40250,53206
40250,53224
40242,53232
40248,53240
40252,53249
40255,53256
40248,53276
40261,53273
40257,53292
40266,53290
40294,53297
40268,53302
40284,53316
40270,53320
40295,53325
40270,53345
40286,53350
40288,53344
40290,53365
40286,53356
40285,53380
40281,53377
40305,53374
40298,53394
40295,53414
40296,53397
40307,53415
40292,53421
40322,53441
40308,53446
40309,53452
40312,53474
40311,53478
40316,53498
40326,53511
40327,53495
40331,53520
40322,53499
40307,53486
40277,53436
40263,53344
40208,53188
40161,53023
40104,52820
40064,52676
40036,52557
40000,52467
39990,52402
39993,52366
40006,52371
39987,52386
40001,52402
40024,52428
40036,52474
40044,52502
40057,52544
40068,52582
40056,52601
40067,52622
40077,52641
40081,52653
40093,52674
40094,52673
40096,52672
40091,52659
40092,52702
40098,52717
40111,52753
40124,52784
40131,52789
40125,52833
40128,52831
40149,52845
40142,52825
40113,52825
40151,52805
40117,52789
40143,52771
40114,52765
40099,52753
40102,52751
40114,52727
40101,52752
40106,52782
40129,52799
40127,52809
40129,52782
40131,52798
40140,52841
40141,52861
40142,52863
40166,52885
40158,52908
40161,52934
40170,52950
40201,52953
40174,52977
40189,52995
40178,53015
40169,53022
40193,53026
40189,53041
40188,53058
40219,53070
40204,53073
40202,53094
40213,53102
40221,53110
40228,53124
40229,53135
40231,53131
40231,53133
40210,53167
40244,53162
40224,53174
40242,53194
40251,53199
40250,53200
40253,53210
40251,53208
40244,53220
40258,53223
40260,53231
40263,53261
40253,53254
40261,53268
40262,53264
40264,53265
40263,53301
40263,53311
40277,53324
40262,53319
40260,53332
40279,53327
40283,53339
40290,53348
40288,53348
40291,53365
40290,53382
40301,53386
40304,53386
40298,53392
40305,53394
40305,53404
40301,53415
40306,53429
40307,53447
40309,53443
40309,53452
40319,53450
40315,53472
40316,53477
40311,53505
40309,53498
40326,53507
40333,53519
40342,53506
40318,53540
40334,53558
40329,53531
40337,53553
40321,53537
40327,53527
40310,53481
40264,53393
40245,53247
40189,53069
40126,52893
40077,52735
40059,52625
40038,52529
40020,52465
40007,52454
40031,52452
40028,52484
40040,52494
40051,52533
40058,52588
40085,52625
40090,52670
40102,52708
40117,52750
40124,52781
40130,52808
40135,52832
40150,52834
40141,52845
40145,52864
40146,52863
40143,52899
40166,52936
40162,52946
40174,52972
40200,53011
40196,53008
40193,53005
40194,53008
40193,52995
40169,52986
40165,52951
40160,52924
40144,52909
40136,52886
40149,52863
40139,52853
40162,52859
40137,52859
40152,52864
40168,52870
40155,52889
40150,52912
40171,52927
40182,52960
40168,52954
40179,52973
40176,52996
40183,53033
40196,53027
40191,53046
40207,53059
40215,53075
40218,53079
40217,53100
40212,53102
40231,53105
40228,53123
40222,53138
40237,53135
40250,53163
40222,53176
40239,53178
40243,53176
40231,53185
40219,53195
40241,53202
40241,53218
40244,53242
40261,53227
40262,53234
40245,53247
40249,53257
40266,53261
40260,53285
40281,53278
40268,53284
40269,53303
40262,53300
40281,53307
40298,53328
40276,53328
40279,53325
40294,53343
40277,53344
40278,53358
40285,53382
40290,53359
40290,53377
40286,53382
40301,53366
40290,53407
40298,53383
40294,53409
40304,53408
40300,53425
40299,53426
40292,53443
40309,53455
40302,53450
40306,53459
40312,53488
40314,53485
40324,53494
40319,53501
40322,53505
40299,53491
40297,53446
40272,53359
40231,53244
40184,53061
40130,52858
40087,52714
40057,52577
40024,52467
40005,52423
40002,52413
40004,52384
39996,52399
40008,52426
40017,52433
40030,52490
40039,52503
40040,52543
40054,52556
40070,52610
40068,52631
40076,52630
40085,52637
40076,52664
40076,52654
40088,52692
40104,52684
40086,52706
40106,52735
40121,52762
40118,52786
40117,52823
40128,52808
40135,52846
40139,52837
40128,52832
40115,52819
40116,52814
40108,52790
40103,52756
40106,52751
40101,52741
40091,52731
40091,52743
40093,52744
40096,52739
40102,52761
40120,52757
40111,52774
40125,52805
40124,52816
40125,52843
40134,52862
40155,52875
40155,52873
40159,52896
40150,52922
40161,52925
40136,52949
40162,52973
40168,53005
40192,53031
40188,52992
40193,53001
40206,53035
40197,53064
40202,53083
40213,53085
40204,53092
40222,53113
40213,53101
40230,53127
40213,53125
40235,53136
40191,53161
40186,53141
40202,53166
40240,53193
40245,53185
40239,53196
40243,53201
40236,53196
40240,53231
40248,53234
40242,53230
40239,53251
40250,53254
40253,53259
40249,53279
40268,53286
40239,53287
40262,53306
40270,53296
40259,53310
40270,53311
40266,53322
40262,53334
40254,53336
40270,53341
40279,53360
40276,53354
40283,53369
40279,53379
40286,53386
40300,53393
40286,53402
40281,53417
40278,53423
40282,53418
40299,53453
40286,53449
40296,53462
40311,53485
40303,53476
40298,53496
40312,53492
40302,53506
40317,53492
40289,53427
40250,53323
40214,53189
40156,52987
40086,52782
40032,52650
39998,52511
39984,52415
39966,52354
39968,52328
39967,52342
39977,52343
39980,52377
39982,52396
39996,52402
40008,52447
40004,52467
40035,52507
40030,52549
40041,52555
40048,52570
40059,52584
40047,52591
40043,52612
40044,52614
40059,52620
40059,52636
40062,52641
40080,52674
40082,52724
40086,52723
40098,52749
40102,52754
40107,52768
40093,52768
40088,52742
40082,52716
40071,52707
40062,52695
40080,52678
40069,52660
40061,52656
40071,52653
40076,52643
40068,52663
40062,52658
40069,52682
40084,52701
40075,52716
40089,52740
40088,52746
40095,52761
40099,52780
40118,52808
40119,52816
40123,52835
40111,52848
40122,52858
40123,52871
40125,52897
40141,52917
40148,52923
40129,52938
40152,52967
40157,52960
40153,52982
40143,52981
40155,52992
40167,52996
40171,53038
40177,53023
40165,53042
40182,53038
40162,53059
40173,53070
40199,53074
40193,53099
40182,53088
40189,53109
40189,53105
40186,53131
40190,53121
40202,53138
40211,53159
40188,53175
40225,53164
40199,53156
40213,53182
40216,53198
40224,53194
40211,53208
40207,53198
40228,53221
40218,53215
40212,53218
40230,53243
40237,53239
40224,53261
40226,53275
40235,53272
40228,53279
40250,53293
40241,53304
40244,53298
40250,53312
40251,53322
40237,53323
40246,53337
40258,53348
40275,53373
40266,53375
40266,53383
40264,53389
40276,53385
40269,53416
40261,53409
40259,53423
40264,53412
40258,53389
40254,53337
40220,53236
40166,53104
40105,52903
40061,52715
40016,52590
39981,52444
39971,52376
39964,52346
39937,52326
39930,52347
39966,52347
39985,52387
39969,52410
39997,52448
40020,52481
40002,52522
40025,52536
40035,52598
40048,52618
40051,52648
40052,52655
40058,52682
40066,52688
40077,52702
40079,52734
40090,52757
40107,52788
40091,52820
40111,52842
40106,52856
40105,52847
40104,52840
40089,52819
40111,52814
40094,52765
40056,52741
40063,52717
40056,52694
40056,52692
40060,52676
40054,52686
40070,52686
40071,52700
40074,52715
40077,52731
40081,52756
40102,52770
40092,52796
40103,52812
40116,52843
40111,52840
40113,52856
40104,52876
40125,52907
40133,52902
40144,52905
40147,52950
40138,52959
40140,52960
40138,52982
40160,52999
40165,53008
40159,53016
40165,53051
40175,53055
40189,53059
40182,53068
40189,53081
40193,53091
40168,53097
40056,52692
40195,53122
40196,53142
40184,53142
40202,53119
40206,53138
40201,53155
40202,53183
40209,53185
40224,53201
40207,53192
40218,53206
40226,53226
40225,53218
40215,53242
40228,53238
40211,53246
40189,53266
40216,53253
40234,53278
40227,53287
40231,53290
40239,53299
40232,53287
40244,53306
40233,53323
40238,53314
40244,53324
40244,53347
40249,53348
40267,53369
40248,53374
40278,53376
40250,53401
40263,53402
40264,53408
40251,53413
40263,53407
40251,53355
40206,53282
40162,53109
40112,52931
40045,52731
40001,52571
39968,52427
39937,52351
39931,52288
39914,52260
39919,52249
39922,52253
39929,52258
39926,52289
39926,52309
39952,52342
39942,52369
39964,52402
39980,52432
39978,52440
39971,52438
39975,52466
39979,52475
39991,52468
39998,52474
39992,52496
40000,52509
40012,52515
40022,52550
40020,52571
40024,52608
40041,52609
40018,52632
40045,52627
40032,52620
40020,52617
40030,52612
40027,52600
40031,52570
40002,52552
39996,52551
40016,52532
40016,52547
40020,52536
40007,52552
40016,52580
40019,52575
40032,52593
40030,52612
40045,52635
40043,52633
40047,52656
40060,52672
40049,52704
40053,52704
40084,52707
40075,52733
40087,52754
40084,52779
40090,52785
40092,52830
40090,52825
40105,52827
40100,52868
40112,52877
40121,52885
40121,52906
40135,52907
40130,52917
40127,52939
40128,52936
40132,52959
40135,52967
40150,52977
40133,52988
40131,52983
40157,53001
40147,53014
40147,53039
40163,53039
40157,53043
40172,53066
40161,53056
40165,53075
40166,53086
40183,53094
40178,53114
40161,53115
40171,53124
40180,53112
40177,53130
40180,53136
40202,53166
40195,53162
40193,53186
40196,53178
40200,53180
40199,53204
40216,53206
40204,53207
40206,53225
40205,53232
40223,53241
40229,53248
40227,53265
40214,53253
40216,53266
40207,53292
40237,53287
40233,53305
40242,53300
40252,53325
40245,53339
40248,53336
40234,53357
40236,53367
40243,53374
40249,53382
40240,53385
40248,53348
40230,53306
40187,53199
40145,53056
40064,52868
40024,52665
39972,52498
39940,52367
39915,52290
39897,52244
39897,52205
39891,52206
39909,52230
39912,52236
39924,52270
39936,52290
39939,52333
39942,52345
39943,52388
39968,52395
39967,52425
39971,52444
39968,52459
39981,52457
39998,52454
39991,52461
39996,52481
40001,52495
40000,52525
40015,52553
40008,52572
40019,52602
40022,52619
40024,52621
40033,52616
40042,52616
40023,52605
40008,52574
39997,52575
40009,52552
39997,52531
39982,52520
40001,52500
40003,52515
40006,52526
40007,52527
40007,52528
40029,52538
40011,52565
40016,52586
40022,52615
40022,52604
40039,52620
40042,52657
40034,52679
40053,52685
40077,52701
40064,52725
40063,52733
40075,52749
40076,52756
40091,52783
40086,52788
40082,52822
40082,52826
40092,52827
40104,52855
40102,52863
40118,52875
40102,52901
40096,52914
40119,52922
40120,52931
40122,52927
40127,52933
40138,52955
40133,52954
40133,52961
40127,52968
40151,52985
40130,52995
40161,53006
40151,53013
40149,53032
40158,53030
40151,53054
40154,53050
40166,53085
40172,53065
40169,53084
40169,53084
40184,53076
40167,53102
40146,53104
40172,53134
40188,53160
40167,53173
40183,53151
40177,53123
40193,53149
40195,53179
40201,53189
40208,53181
40200,53208
40197,53204
40205,53213
40221,53235
40209,53243
40243,53267
40243,53274
40211,53271
40214,53293
40235,53310
40217,53315
40234,53314
40231,53278
40215,53231
40175,53140
40123,53005
40067,52803
40007,52615
39975,52450
39957,52330
39920,52260
39903,52228
39912,52205
39908,52195
39913,52204
39908,52228
39921,52255
39922,52286
39953,52311
39949,52349
39975,52372
39970,52395
39975,52425
39988,52414
39978,52444
39993,52458
39982,52461
39990,52466
40001,52492
40004,52499
40031,52554
40015,52572
40033,52585
40040,52625
40045,52627
40047,52637
40048,52636
40038,52618
40042,52602
40024,52578
40016,52563
40001,52525
40014,52533
40008,52529
39999,52521
40010,52499
40025,52519
40011,52542
40019,52539
40016,52568
40030,52576
40047,52597
40034,52615
40046,52637
40048,52658
40067,52681
40079,52677
40068,52706
40078,52743
40078,52748
40090,52760
40104,52780
40082,52786
40086,52802
40110,52821
40122,52838
40109,52841
40125,52866
40117,52882
40115,52884
40121,52903
40127,52907
40140,52921
40147,52932
40134,52938
40139,52958
40142,52954
40143,52975
40151,52980
40166,53006
40160,52989
40150,53025
40156,53019
40165,53025
40168,53045
40180,53045
40174,53059
40183,53078
40186,53076
40174,53081
40191,53109
40175,53104
40184,53105
40189,53127
40192,53120
40195,53127
40186,53145
40206,53171
40206,53163
40216,53162
40212,53170
40207,53202
40218,53185
40228,53197
40220,53215
40223,53226
40221,53244
40235,53239
40228,53255
40233,53270
40230,53269
40242,53293
40235,53295
40239,53308
40257,53333
40255,53336
40251,53334
40251,53326
40236,53295
40211,53221
40160,53090
40109,52933
40044,52711
39997,52541
39965,52397
39929,52281
39928,52259
39915,52193
39893,52173
39902,52192
39912,52194
39911,52222
39917,52246
39938,52270
39936,52300
39947,52340
39961,52362
39969,52381
39984,52378
39978,52395
39987,52414
39993,52433
39988,52418
39972,52428
39983,52442
39995,52459
40000,52487
40017,52521
40021,52538
40041,52554
40034,52572
40034,52578
40026,52577
40032,52577
40017,52546
40003,52533
40003,52529
40001,52502
40013,52484
40011,52474
40007,52466
40004,52472
40007,52483
40021,52498
40014,52500
40027,52513
40018,52525
40030,52535
40042,52552
40042,52592
40058,52603
40049,52619
40078,52643
40063,52665
40057,52674
40067,52694
40076,52716
40073,52733
40073,52746
40091,52754
40092,52785
40104,52799
40087,52806
40104,52812
40109,52806
40100,52851
40108,52835
40110,52852
40121,52876
40125,52893
40125,52900
40127,52906
40144,52912
40143,52917
40146,52926
40141,52952
40145,52943
40153,52956
40143,52987
40150,52988
40154,52978
40153,52995
40174,53015
40166,53009
40169,53017
40168,53037
40172,53031
40160,53056
40184,53057
40179,53065
40179,53062
40179,53093
40182,53099
40184,53102
40187,53089
40200,53138
40188,53137
40204,53133
40208,53140
40204,53141
40215,53125
40222,53163
40206,53174
40226,53199
40213,53189
40217,53210
40232,53231
40216,53232
40216,53246
40233,53221
40242,53264
40232,53274
40227,53273
40238,53277
40239,53304
40233,53296
40221,53252
40196,53142
40156,53001
40098,52846
40028,52667
39997,52498
39957,52372
39938,52296
39910,52252
39919,52250
39950,52242
39966,52264
39955,52280
39940,52294
39940,52337
39942,52380
39962,52406
39989,52435
39995,52455
40015,52500
40018,52514
40024,52532
40030,52549
40032,52573
40038,52569
40044,52604
40048,52621
40069,52665
40078,52680
40076,52720
40078,52722
40073,52719
40095,52712
40051,52700
40063,52685
40055,52654
40042,52623
40041,52597
40035,52590
40047,52589
40042,52563
40028,52570
40029,52590
40058,52575
40041,52603
40051,52614
40043,52641
40069,52655
40069,52669
40055,52694
40071,52715
40083,52723
40081,52748
40098,52763
40091,52779
40115,52802
40107,52815
40122,52823
40121,52851
40119,52858
40133,52872
40158,52898
40140,52924
40151,52910
40146,52932
40142,52944
40157,52953
40142,52960
40164,52977
40178,52982
40165,52998
40166,53001
40168,52998
40179,53033
40174,53039
40169,53044
40193,53060
40184,53069
40202,53080
40189,53076
40169,53098
40188,53102
40186,53100
40205,53115
40210,53114
40191,53126
40217,53157
40217,53147
40210,53160
40198,53176
40212,53177
40204,53188
40231,53210
40224,53188
40231,53193
40236,53210
40238,53220
40226,53218
40230,53240
40241,53247
40240,53255
40247,53265
40228,53267
40243,53292
40248,53302
40235,53299
40240,53319
40252,53331
40254,53342
40260,53348
40265,53343
40269,53362
40263,53372
40267,53372
40269,53362
40258,53317
40226,53262
40178,53115
40108,52930
40066,52736
40002,52559
39971,52411
39957,52329
39924,52271
39913,52243
39932,52244
39933,52235
39941,52250
39925,52258
39945,52303
39957,52310
39960,52333
39983,52349
39978,52374
39978,52406
39978,52425
39992,52444
39974,52441
39986,52433
39986,52437
39989,52445
39997,52461
40001,52470
40023,52503
40026,52533
40021,52555
40028,52578
40038,52587
40042,52590
40031,52597
40026,52582
40037,52579
40015,52559
40013,52531
40011,52521
40013,52516
40005,52504
40004,52513
40015,52507
40007,52524
40025,52518
40025,52530
40026,52547
40020,52564
40060,52574
40034,52614
40049,52619
40061,52633
40063,52651
40058,52663
40070,52696
40068,52709
40071,52732
40082,52732
40092,52749
40074,52768
40093,52795
40106,52818
40118,52839
40110,52845
40115,52846
40130,52866
40126,52877
40123,52898
40127,52902
40136,52900
40127,52917
40129,52931
40140,52941
40150,52947
40139,52952
40141,52976
40145,52979
40147,53004
40155,53004
40130,53008
40142,53027
40173,53032
40156,53022
40159,53044
40172,53062
40180,53065
40175,53092
40178,53076
40182,53092
40170,53104
40184,53116
40186,53125
40170,53128
40195,53149
40206,53140
40189,53137
40182,53155
40194,53159
40204,53180
40201,53180
40207,53189
40205,53202
40205,53208
40207,53215
40203,53230
40213,53249
40215,53242
40220,53277
40218,53291
40227,53265
40228,53299
40232,53305
40233,53305
40241,53291
40205,53254
40188,53182
40142,53055
40081,52874
40023,52670
39994,52526
39954,52373
39926,52300
39902,52258
39915,52230
39888,52238
39904,52230
39921,52261
39940,52258
39919,52312
39931,52349
39941,52384
39950,52380
39960,52402
39982,52424
39987,52441
39978,52465
39983,52471
39973,52466
39999,52479
39990,52507
40019,52529
40019,52562
40018,52578
40039,52588
40025,52622
39997,52632
40014,52619
40023,52611
40019,52600
40018,52563
40006,52546
40002,52528
40008,52508
39987,52505
39992,52502
39980,52489
39999,52502
39993,52525
39989,52525
40000,52535
40007,52555
40023,52583
40016,52589
40018,52608
40043,52624
40028,52637
40035,52656
40046,52671
40026,52689
40051,52707
40059,52709
40064,52738
40061,52756
40081,52786
40089,52786
40084,52798
40091,52803
40098,52812
40092,52841
40092,52833
40097,52864
40111,52885
40114,52870
40109,52900
40108,52894
40118,52913
40108,52914
40124,52928
40129,52952
40128,52954
40135,52962
40129,52970
40120,52991
40123,52985
40148,52995
40138,53014
40140,53014
40152,53004
40157,53028
40138,53038
40155,53047
40160,53053
40155,53063
40157,53078
40150,53079
40162,53096
40151,53088
40170,53098
40153,53103
40167,53119
40170,53130
40177,53142
40177,53148
40191,53155
40193,53179
40197,53173
40206,53188
40195,53216
40205,53208
40206,53217
40214,53232
40201,53229
40192,53198
40166,53147
40151,53044
40106,52896
40018,52703
39984,52552
39935,52395
39912,52304
39907,52231
39888,52192
39881,52185
39885,52186
39886,52182
39892,52219
39913,52256
39920,52261
39936,52291
39941,52324
39940,52353
39952,52367
39953,52386
39959,52387
39963,52399
39967,52421
39954,52425
39980,52436
39964,52458
39996,52481
39996,52504
40008,52531
40012,52575
40033,52570
40003,52585
40007,52578
40003,52574
40005,52552
39997,52540
39983,52508
39968,52493
39995,52474
39976,52469
39975,52452
39996,52455
39971,52470
39981,52479
39996,52488
40001,52496
39999,52533
40035,52548
40016,52556
40021,52581
40025,52602
40030,52617
40029,52631
40026,52660
40030,52674
40053,52674
40048,52715
40064,52723
40071,52736
40063,52757
40068,52778
40086,52770
40091,52813
40076,52831
40089,52819
40086,52837
40101,52828
40084,52852
40105,52870
40104,52878
40108,52889
40105,52892
40111,52906
40115,52910
40118,52921
40133,52922
40141,52939
40126,52951
40133,52966
40148,52976
40132,52984
40138,52984
40149,53024
40149,53015
40154,53031
40139,53029
40152,53056
40151,53053
40166,53058
40157,53053
40160,53060
40160,53085
40167,53077
40162,53090
40169,53090
40177,53102
40179,53112
40178,53118
40182,53144
40194,53151
40173,53165
40195,53163
40195,53159
40204,53200
40207,53203
40194,53218
40202,53219
40190,53243
40199,53236
40203,53225
40196,53164
40152,53082
40101,52942
40024,52720
39985,52540
39932,52389
39918,52259
39888,52181
39863,52146
39858,52115
39861,52116
39856,52112
39883,52129
39887,52133
39894,52163
39891,52204
39901,52217
39909,52225
39920,52242
39912,52266
39921,52263
39928,52285
39926,52296
39940,52302
39912,52304
39936,52309
39932,52313
39943,52333
39972,52358
39951,52394
39959,52398
39977,52432
39978,52451
39984,52462
39983,52441
39996,52412
39972,52425
39962,52383
39958,52384
39971,52364
39956,52332
39951,52348
39962,52343
39943,52367
39962,52381
39973,52401
39970,52365
39981,52408
39993,52426
39998,52468
40008,52467
40002,52486
40000,52499
40000,52527
40017,52538
40028,52547
40059,52577
40058,52594
40023,52603
40040,52619
40019,52646
40048,52659
40056,52672
40053,52688
40064,52693
40075,52709
40063,52708
40084,52722
40081,52734
40071,52750
40084,52757
40097,52782
40088,52782
40096,52798
40105,52806
40097,52816
40095,52830
40096,52833
40096,52854
40118,52848
40104,52863
40124,52881
40128,52896
40127,52892
40119,52896
40118,52912
40139,52918
40126,52925
40140,52944
40120,52952
40117,52961
40145,52973
40139,52967
40158,52987
40151,52994
40156,52993
40173,53006
40160,53004
40151,53044
40160,53033
40163,53039
40171,53055
40168,53056
40172,53068
40173,53085
40172,53100
40174,53105
40192,53108
40210,53127
40182,53137
40205,53154
40209,53156
40204,53177
40196,53163
40188,53163
40186,53144
40164,53061
40124,52947
40071,52758
40010,52576
39954,52411
39921,52276
39904,52200
39881,52151
39896,52111
39893,52108
39889,52116
39891,52134
39905,52165
39922,52192
39929,52224
39928,52256
39938,52261
39954,52291
39963,52336
39973,52327
39959,52351
39972,52361
39965,52362
39986,52372
39981,52380
39991,52409
40004,52437
40002,52466
40014,52497
40010,52512
40033,52522
40024,52519
40011,52499
40008,52498
40015,52460
39987,52444
39985,52429
39996,52395
39976,52374
39990,52370
39976,52378
39986,52386
39996,52393
39999,52412
39992,52421
39993,52434
40019,52439
40025,52453
40015,52477
40020,52490
40031,52517
40022,52553
40038,52558
40062,52563
40048,52573
40053,52592
40048,52615
40072,52634
40079,52638
40075,52656
40075,52691
40078,52703
40089,52706
40087,52729
40094,52734
40101,52747
40088,52750
40099,52758
40095,52777
40101,52785
40109,52789
40127,52795
40117,52808
40122,52817
40119,52837
40133,52835
40122,52842
40131,52863
40153,52862
40129,52865
40144,52893
40155,52898
40150,52910
40158,52911
40156,52924
40161,52919
40158,52947
40177,52951
40175,52942
40162,52962
40167,52986
40171,52983
40168,52997
40177,52996
40176,53008
40175,53012
40198,53018
40176,53024
40202,53040
40195,53059
40193,53063
40201,53075
40208,53095
40205,53106
40224,53119
40217,53124
40223,53132
40220,53158
40233,53144
40232,53146
40222,53106
40205,53040
40139,52924
40093,52732
40022,52547
39988,52374
39938,52264
39905,52162
39913,52108
39906,52104
39902,52074
39905,52067
39904,52089
39920,52109
39915,52119
39921,52157
39951,52155
39936,52187
39940,52216
39931,52220
39948,52229
39964,52225
39960,52241
39962,52250
39967,52251
39964,52259
39963,52270
39989,52284
39972,52313
39983,52336
40004,52376
40005,52402
40006,52414
40015,52401
40003,52387
39990,52369
39993,52370
40002,52355
39988,52322
39978,52313
39982,52310
39982,52286
40000,52304
39986,52302
39990,52311
39999,52312
39996,52335
40005,52346
40009,52376
40008,52422
40030,52398
40018,52410
40027,52426
40014,52445
40028,52452
40041,52476
40041,52493
40055,52516
40050,52531
40066,52559
40079,52571
40077,52570
40061,52619
40077,52605
40069,52615
40097,52640
40104,52657
40090,52684
40114,52708
40112,52674
40110,52673
40101,52695
40097,52713
40116,52723
40116,52733
40120,52743
40123,52773
40131,52780
40125,52780
40163,52786
40157,52787
40141,52823
40126,52829
40158,52831
40137,52845
40148,52857
40166,52869
40167,52858
40165,52896
40161,52881
40172,52905
40173,52928
40174,52919
40185,52921
40190,52937
40186,52955
40177,52951
40197,52967
40194,52979
40199,52982
40204,52998
40210,53004
40192,53010
40203,53011
40198,53030
40207,53041
40218,53061
40206,53074
40217,53075
40221,53084
40226,53093
40226,53112
40243,53136
40238,53138
40239,53142
40239,53139
40234,53130
40212,53078
40180,52987
40131,52817
40057,52599
40014,52422
39953,52247
39936,52144
39910,52074
39906,52048
39904,52020
39878,52023
39889,52033
39897,52024
39910,52034
39905,52070
39933,52108
39935,52109
39925,52132
39948,52154
39951,52180
39960,52162
39964,52185
39947,52171
39964,52198
39944,52188
39961,52183
39968,52211
39963,52229
39982,52253
39985,52260
39995,52289
39994,52313
39995,52315
40010,52328
39993,52317
39998,52297
39981,52276
39984,52269
39967,52244
39960,52242
39971,52226
39983,52224
39959,52228
39982,52240
39989,52246
39980,52274
40001,52263
40007,52283
40001,52299
40004,52296
40006,52320
40015,52353
40029,52361
40026,52373
40022,52396
40024,52399
40033,52415
40049,52440
40051,52459
40053,52500
40051,52496
40069,52517
40077,52524
40085,52538
40081,52545
40086,52576
40082,52585
40081,52605
40095,52614
40100,52595
40100,52627
40093,52642
40097,52654
40107,52644
40100,52662
40112,52668
40118,52691
40117,52676
40119,52707
40142,52716
40127,52723
40130,52733
40130,52748
40133,52755
40145,52764
40150,52787
40155,52801
40142,52789
40149,52804
40161,52819
40160,52822
40159,52839
40146,52851
40162,52851
40178,52864
40189,52874
40172,52877
40183,52896
40191,52899
40186,52910
40183,52919
40189,52920
40207,52932
40195,52946
40196,52963
40205,52971
40229,52970
40216,52995
40201,52996
40214,53019
40216,53016
40230,53040
40235,53056
40224,53056
40245,53078
40241,53089
40247,53094
40243,53096
40252,53093
40224,53080
40214,52995
40174,52900
40101,52723
40050,52530
39997,52355
39950,52191
39918,52109
39922,52049
39918,52021
39912,52011
39921,52000
39897,52023
39923,52041
39918,52057
39934,52090
39946,52090
39949,52133
39977,52165
39974,52203
39950,52190
39972,52213
39992,52208
39981,52238
39980,52228
39991,52247
40009,52250
40003,52298
40017,52316
40006,52343
40035,52367
40045,52388
40037,52366
40030,52363
40038,52350
40027,52339
40023,52318
40011,52285
40009,52269
39999,52269
39998,52244
40004,52258
40005,52244
39988,52261
40019,52283
40005,52284
40010,52292
40028,52314
40015,52328
40027,52342
40034,52356
40037,52380
40044,52402
40061,52423
40055,52424
40065,52458
40071,52452
40076,52475
40095,52495
40092,52513
40098,52524
40079,52542
40081,52568
40111,52595
40098,52577
40105,52592
40107,52602
40117,52617
40106,52630
40128,52632
40127,52649
40127,52648
40135,52671
40138,52676
40139,52682
40139,52699
40136,52723
40147,52718
40120,52732
40157,52744
40160,52758
40164,52782
40157,52798
40169,52772
40166,52767
40168,52781
40173,52811
40180,52835
40181,52841
40197,52847
40186,52860
40185,52862
40200,52866
40208,52885
40208,52876
40187,52889
40181,52907
40216,52921
40190,52925
40219,52939
40225,52941
40218,52957
40225,52974
40229,52989
40222,53013
40246,53005
40238,53027
40247,53045
40243,53034
40252,53053
40235,53065
40252,53084
40258,53062
40242,53041
40214,52963
40152,52824
40086,52626
40045,52464
39984,52258
39974,52152
39941,52051
39922,51984
39915,51968
39916,51959
39929,51951
39920,51975
39928,51983
39942,52001
39946,52037
39946,52059
39944,52084
39961,52100
39960,52121
39975,52112
39987,52121
39973,52143
39972,52144
39970,52135
39986,52142
39983,52169
40000,52198
40009,52205
40011,52249
40018,52268
40026,52292
40025,52296
40030,52286
40030,52278
40020,52264
39997,52237
40005,52212
40006,52206
39985,52197
39995,52187
39999,52173
39998,52185
40008,52177
39998,52195
40011,52206
40005,52220
40035,52230
40035,52252
40035,52276
40025,52300
40040,52310
40034,52337
40061,52330
40058,52356
40068,52367
40074,52391
40054,52410
40088,52419
40083,52433
40094,52465
40084,52479
40092,52478
40105,52507
40106,52518
40108,52535
40109,52545
40119,52563
40132,52567
40123,52580
40126,52567
40113,52599
40132,52610
40135,52623
40130,52626
40147,52628
40153,52640
40161,52657
40155,52657
40155,52674
40163,52698
40173,52708
40165,52709
40167,52712
40183,52740
40171,52760
40182,52751
40182,52769
40185,52773
40192,52770
40185,52792
40207,52796
40186,52807
40194,52823
40204,52839
40202,52845
40211,52845
40209,52858
40218,52890
40218,52875
40232,52899
40221,52909
40233,52921
40232,52917
40251,52927
40243,52946
40219,52968
40242,52975
40246,52974
40258,52982
40254,53005
40261,53009
40267,53022
40266,53026
40271,53045
40274,53049
40281,53082
40275,53074
40281,53070
40270,53069
40271,53042
40239,52954
40196,52835
40138,52635
40064,52453
40019,52253
39987,52125
39964,52039
39931,51966
39928,51973
39930,51940
39947,51939
39943,51965
39962,51977
39951,52005
39968,52044
39983,52059
39994,52094
39986,52105
40002,52129
39994,52138
39995,52151
40015,52161
40026,52168
40022,52176
40020,52174
40017,52183
40025,52213
40034,52259
40048,52272
40061,52310
40057,52304
40071,52315
40073,52320
40065,52281
40059,52281
40036,52271
40044,52259
40032,52226
40034,52208
40018,52216
40023,52187
40020,52202
40034,52207
40045,52221
40058,52239
40055,52258
40033,52272
40043,52282
40064,52305
40060,52320
40077,52340
40078,52338
40083,52376
40088,52377
40102,52414
40103,52407
40115,52433
40114,52452
40129,52480
40126,52502
40130,52497
40137,52528
40140,52522
40138,52546
40150,52567
40154,52571
40162,52590
40157,52576
40163,52604
40168,52603
40172,52628
40173,52642
40180,52645
40177,52670
40183,52671
40188,52672
40180,52692
40198,52698
40198,52693
40204,52742
40189,52733
40222,52745
40198,52770
40206,52765
40219,52775
40211,52770
40206,52795
40229,52800
40225,52816
40232,52821
40222,52830
40248,52842
40243,52841
40236,52843
40198,52869
40256,52864
40263,52892
40246,52913
40262,52920
40262,52912
40262,52906
40268,52921
40265,52957
40272,52962
40267,52971
40271,52976
40276,52985
40296,52994
40284,53008
40309,53016
40297,53043
40284,53040
40278,53053
40300,53066
40293,53085
40321,53081
40311,53100
40318,53111
40308,53105
40308,53064
40284,53005
40228,52860
40167,52694
40123,52482
40067,52336
40033,52209
39995,52118
40000,52059
39985,52041
39995,52042
39992,52042
39994,52064
39995,52085
40015,52122
40026,52150
40066,52196
40032,52234
40068,52251
40076,52278
40077,52307
40076,52310
40083,52318
40094,52344
40114,52346
40106,52384
40111,52391
40124,52431
40129,52460
40153,52484
40155,52500
40144,52493
40149,52498
40142,52472
40133,52440
40122,52419
40107,52400
40114,52372
40102,52338
40115,52324
40100,52328
40113,52337
40108,52338
40106,52359
40114,52364
40096,52382
40133,52415
40130,52417
40131,52429
40136,52455
40153,52469
40156,52488
40147,52513
40147,52543
40164,52533
40167,52562
40190,52577
40195,52617
40201,52612
40199,52631
40186,52643
40211,52656
40205,52674
40213,52677
40212,52699
40205,52715
40221,52721
40237,52737
40220,52746
40225,52743
40234,52770
40237,52769
40243,52785
40246,52791
40261,52801
40257,52809
40250,52808
40246,52837
40258,52845
40269,52848
40282,52863
40272,52862
40268,52884
40277,52883
40275,52895
40281,52906
40283,52925
40290,52918
40303,52924
40298,52928
40289,52956
40305,52964
40292,52958
40307,52964
40308,52980
40314,52992
40316,52989
40311,53005
40312,53020
40315,53026
40310,53030
40315,53044
40326,53059
40322,53059
40338,53091
40335,53088
40346,53102
40344,53128
40347,53143
40347,53145
40352,53136
40338,53152
40340,53112
40313,53048
40286,52935
40224,52749
40151,52557
40116,52358
40048,52242
40033,52144
40036,52065
40012,52050
39996,52020
40010,52034
40016,52024
40011,52057
40019,52096
40035,52097
40040,52142
40056,52156
40065,52178
40070,52207
40068,52219
40079,52221
40074,52224
40091,52219
40084,52224
40094,52242
40101,52249
40094,52267
40107,52276
40106,52320
40121,52339
40124,52367
40123,52376
40121,52379
40140,52355
40127,52368
40127,52354
40116,52328
40113,52307
40098,52290
40082,52279
40098,52290
40093,52263
40095,52292
40100,52312
40104,52301
40103,52327
40133,52342
40121,52364
40117,52369
40145,52390
40142,52409
40138,52404
40151,52444
40154,52446
40156,52473
40166,52489
40166,52525
40177,52524
40182,52541
40193,52565
40198,52579
40205,52585
40198,52615
40203,52633
40211,52642
40219,52642
40215,52677
40233,52669
40221,52674
40229,52710
40231,52706
40235,52719
40250,52736
40238,52735
40248,52747
40258,52769
40257,52789
40267,52786
40251,52808
40270,52809
40263,52814
40286,52837
40281,52836
40266,52842
40271,52855
40283,52869
40273,52873
40285,52903
40299,52905
40285,52906
40304,52913
40292,52936
40299,52948
40305,52945
40308,52953
40310,52961
40322,52970
40309,52959
40312,52982
40322,52996
40326,53000
40331,53030
40335,53029
40339,53042
40335,53032
40343,53062
40342,53085
40364,53081
40350,53096
40357,53109
40352,53116
40352,53124
40361,53169
40372,53165
40357,53149
40364,53161
40371,53169
40368,53129
40338,53074
40288,52956
40225,52786
40151,52568
40129,52398
40087,52245
40076,52140
40061,52104
40025,52064
39989,52052
40322,52970
40027,52066
40040,52081
40068,52116
40074,52160
40061,52176
40082,52216
40091,52239
40092,52270
40094,52282
40106,52297
40117,52309
40125,52311
40111,52320
40107,52312
40121,52346
40143,52345
40118,52383
40135,52401
40151,52432
40157,52448
40160,52448
40163,52449
40148,52438
40145,52431
40142,52397
40133,52365
40121,52346
40119,52337
40121,52331
40118,52310
40129,52325
40122,52327
40136,52356
40131,52342
40126,52368
40145,52370
40144,52395
40151,52415
40157,52442
40167,52446
40173,52477
40176,52497
40181,52521
40185,52533
40190,52560
40194,52562
40205,52580
40198,52591
40199,52593
40215,52611
40210,52615
40228,52652
40229,52660
40233,52674
40234,52674
40233,52704
40237,52721
40242,52713
40235,52733
40243,52726
40256,52744
40258,52764
40260,52777
40256,52773
40254,52784
40259,52785
40270,52803
40280,52828
40283,52827
40270,52834
40273,52853
40297,52864
40299,52872
40302,52877
40279,52887
40304,52886
40302,52895
40294,52927
40311,52932
40312,52941
40310,52943
40304,52934
40318,52949
40316,52970
40316,52969
40319,52976
40316,52990
40334,52994
40342,53011
40338,53002
40341,53033
40339,53047
40343,53043
40347,53080
40346,53081
40362,53086
40367,53105
40363,53112
40363,53135
40375,53142
40376,53157
40384,53153
40386,53154
40361,53143
40348,53078
40302,52975
40259,52800
40197,52593
40141,52438
40088,52275
40059,52167
40047,52108
40038,52070
40018,52060
40047,52064
40053,52081
40055,52083
40061,52098
40080,52152
40078,52175
40078,52211
40107,52222
40104,52244
40115,52273
40120,52296
40112,52307
40113,52309
40115,52310
40133,52318
40127,52327
40138,52356
40166,52383
40162,52414
40174,52411
40165,52466
40182,52461
40185,52448
40189,52451
40177,52437
40153,52425
40153,52405
40156,52373
40149,52354
40146,52341
40163,52347
40141,52341
40155,52356
40161,52373
40145,52375
40164,52393
40166,52419
40163,52430
40172,52454
40176,52468
40185,52481
40199,52507
40195,52526
40218,52542
40216,52554
40219,52562
40206,52585
40229,52611
40227,52628
40230,52649
40252,52650
40242,52677
40240,52691
40254,52706
40261,52706
40254,52725
40275,52731
40269,52760
40277,52756
40272,52779
40281,52781
40286,52784
40283,52807
40287,52822
40294,52821
40290,52832
40315,52838
40314,52863
40307,52873
40306,52878
40318,52891
40313,52904
40340,52909
40322,52916
40321,52934
40331,52931
40331,52962
40326,52950
40341,52973
40340,52980
40344,52985
40343,52996
40335,53004
40331,53017
40353,53006
40347,53025
40353,53044
40369,53038
40352,53058
40355,53075
40369,53072
40364,53077
40370,53082
40378,53113
40387,53122
40391,53130
40382,53147
40408,53160
40399,53155
40400,53197
40413,53194
40412,53212
40412,53196
40403,53151
40373,53087
40319,52996
40263,52815
40206,52608
40176,52426
40108,52268
40069,52170
40076,52119
40062,52089
40053,52073
40056,52071
40061,52077
40060,52099
40097,52142
40105,52172
40106,52191
40114,52199
40123,52227
40129,52245
40122,52251
40120,52281
40138,52279
40139,52282
40137,52288
40141,52288
40141,52318
40165,52352
40184,52380
40173,52392
40188,52426
40169,52438
40173,52429
40185,52434
40187,52420
40165,52415
40186,52387
40176,52377
40168,52351
40147,52341
40167,52349
40151,52349
40159,52349
40167,52365
40183,52352
40173,52391
40187,52400
40182,52414
40196,52423
40195,52451
40201,52468
40224,52481
40218,52491
40220,52520
40224,52546
40230,52544
40243,52567
40245,52591
40234,52611
40241,52613
40252,52645
40274,52648
40257,52653
40274,52677
40270,52696
40280,52700
40270,52731
40275,52728
40282,52735
40313,52747
40297,52756
40302,52785
40305,52770
40305,52789
40297,52805
40292,52817
40297,52825
40319,52831
40317,52837
40309,52876
40319,52853
40330,52884
40333,52887
40331,52901
40340,52912
40334,52908
40343,52916
40345,52925
40343,52933
40349,52961
40358,52951
40360,52968
40355,52977
40359,52985
40364,52994
40370,53015
40360,53019
40366,53041
40369,53037
40377,53024
40367,53054
40389,53059
40378,53073
40410,53089
40385,53086
40391,53107
40394,53124
40408,53116
40412,53152
40412,53150
40401,53145
40404,53167
40412,53149
40392,53130
40376,53059
40331,52944
40274,52765
40214,52567
40178,52430
40129,52284
40114,52195
40092,52124
40087,52104
40084,52114
40095,52107
40112,52126
40116,52166
40125,52206
40142,52220
40146,52265
40161,52315
40167,52306
40158,52334
40189,52370
40189,52385
40188,52390
40187,52395
40191,52411
40199,52430
40202,52452
40231,52497
40246,52529
40246,52559
40242,52562
40241,52561
40255,52578
40237,52550
40233,52521
40226,52510
40222,52476
40215,52461
40212,52430
40198,52432
40213,52410
40193,52421
40204,52440
40220,52444
40226,52456
40228,52470
40235,52487
40228,52494
40239,52518
40240,52548
40257,52554
40273,52589
40268,52613
40276,52628
40280,52634
40273,52666
40294,52686
40285,52706
40299,52698
40302,52725
40314,52741
40311,52747
40331,52752
40319,52771
40317,52793
40332,52787
40322,52804
40323,52815
40343,52843
40334,52841
40354,52847
40348,52869
40346,52882
40360,52877
40354,52887
40357,52918
40373,52908
40374,52932
40358,52937
40371,52942
40372,52946
40384,52963
40380,52993
40378,52992
40389,52992
40390,53002
40376,53026
40401,53033
40400,53034
40397,53046
40421,53051
40406,53052
40409,53072
40416,53076
40409,53094
40400,53094
40417,53096
40417,53099
40418,53111
40409,53122
40435,53139
40425,53156
40420,53153
40435,53161
40432,53180
40442,53182
40448,53190
40445,53207
40447,53200
40465,53226
40453,53243
40447,53250
40477,53255
40454,53264
40436,53235
40442,53204
40403,53120
40376,52982
40298,52772
40239,52577
40197,52420
40158,52283
40136,52194
40130,52157
40104,52133
40116,52123
40126,52128
40137,52156
40140,52168
40139,52201
40163,52236
40171,52250
40192,52282
40190,52336
40192,52331
40195,52341
40196,52337
40203,52359
40204,52332
40213,52381
40192,52367
40217,52381
40222,52414
40230,52435
40230,52477
40234,52477
40252,52509
40238,52520
40247,52523
40253,52505
40241,52503
40244,52496
40233,52474
40226,52412
40220,52389
40219,52400
40219,52416
40223,52439
40233,52426
40238,52450
40243,52466
40243,52486
40263,52498
40288,52520
40301,52538
40267,52562
40257,52577
40270,52581
40276,52602
40287,52629
40304,52652
40312,52667
40301,52678
40326,52689
40325,52716
40325,52725
40328,52745
40348,52773
40336,52764
40331,52787
40334,52799
40332,52805
40359,52816
40349,52820
40357,52829
40360,52847
40366,52881
40375,52863
40372,52863
40369,52897
40386,52908
40376,52909
40374,52925
40387,52935
40384,52951
40403,52954
40402,52969
40392,52986
40393,52981
40406,52988
40406,52993
40413,53011
40404,53014
40396,53030
40419,53047
40408,53038
40418,53051
40423,53066
40419,53086
40428,53106
40425,53086
40428,53086
40445,53100
40444,53115
40446,53129
40446,53134
40445,53139
40447,53143
40456,53157
40448,53157
40467,53179
40448,53188
40463,53197
40466,53201
40468,53244
40482,53233
40478,53248
40469,53268
40485,53265
40469,53255
40477,53228
40451,53188
40423,53089
40377,52923
40287,52705
40266,52521
40201,52374
40157,52254
40151,52178
40144,52134
40140,52119
40125,52121
40135,52133
40153,52157
40161,52177
40179,52200
40172,52235
40197,52260
40204,52287
40191,52316
40209,52328
40215,52347
40209,52348
40213,52360
40231,52372
40227,52381
40227,52376
40236,52411
40230,52413
40236,52450
40261,52473
40281,52483
40282,52517
40274,52516
40266,52534
40272,52501
40254,52475
40263,52481
40247,52447
40247,52437
40250,52405
40241,52414
40238,52421
40243,52422
40249,52423
40249,52440
40248,52449
40266,52457
40268,52489
40276,52501
40279,52521
40282,52544
40280,52568
40296,52575
40299,52593
40299,52605
40295,52624
40312,52638
40318,52664
40320,52673
40337,52696
40336,52708
40332,52728
40333,52748
40358,52752
40342,52769
40355,52773
40339,52796
40359,52807
40354,52803
40369,52825
40372,52843
40368,52834
40375,52837
40364,52872
40389,52875
40374,52892
40381,52885
40388,52903
40398,52899
40393,52921
40397,52939
40401,52939
40400,52930
40395,52956
40410,52965
40423,52965
40418,52973
40419,52992
40422,52994
40435,53019
40422,53026
40413,53025
40421,53037
40437,53052
40443,53069
40436,53062
40430,53065
40434,53074
40448,53104
40442,53104
40446,53109
40443,53112
40454,53109
40451,53121
40458,53141
40457,53138
40462,53160
40472,53171
40457,53184
40454,53184
40469,53201
40480,53215
40477,53223
40457,53229
40475,53242
40485,53246
40491,53251
40470,53254
40464,53216
40436,53173
40417,53077
40372,52910
40298,52716
40257,52547
40216,52387
40187,52298
40169,52216
40179,52179
40165,52181
40165,52171
40177,52210
40185,52220
40182,52275
40199,52312
40223,52332
40236,52378
40237,52402
40244,52437
40252,52461
40266,52484
40262,52501
40277,52499
40272,52505
40271,52531
40281,52554
40303,52587
40320,52605
40316,52639
40326,52655
40319,52668
40320,52659
40322,52641
40313,52655
40295,52604
40307,52572
40288,52545
40280,52526
40269,52481
40254,52485
40269,52500
40272,52500
40272,52523
40280,52544
40287,52563
40294,52564
40299,52597
40304,52625
40333,52638
40320,52640
40334,52675
40328,52695
40333,52730
40349,52771
40342,52773
40369,52754
40363,52767
40356,52809
40361,52822
40377,52835
40386,52861
40374,52869
40370,52876
40395,52877
40399,52898
40402,52894
40420,52900
40382,52919
40367,52936
40376,52935
40402,52961
40394,52957
40405,52983
40420,52978
40418,53007
40417,53014
40440,53014
40425,53028
40437,53037
40427,53053
40438,53037
40430,53049
40432,53066
40450,53070
40443,53087
40455,53092
40440,53100
40454,53113
40439,53120
40464,53111
40469,53130
40459,53137
40458,53144
40450,53166
40460,53151
40464,53170
40454,53192
40467,53197
40477,53196
40481,53207
40489,53222
40491,53229
40476,53256
40498,53246
40496,53284
40503,53268
40509,53283
40499,53303
40498,53273
40496,53252
40473,53200
40422,53065
40368,52889
40289,52677
40266,52531
40208,52357
40184,52268
40162,52188
40152,52173
40161,52174
40152,52161
40145,52153
40164,52184
40165,52197
40172,52229
40190,52272
40195,52284
40207,52292
40215,52311
40218,52339
40228,52338
40222,52354
40221,52352
40212,52365
40232,52360
40229,52376
40224,52384
40248,52414
40248,52456
40269,52458
40282,52499
40272,52514
40274,52505
40266,52509
40264,52503
40280,52474
40260,52482
40247,52440
40255,52411
40237,52427
40248,52415
40250,52431
40242,52416
40247,52435
40254,52435
40256,52467
40276,52475
40268,52505
40288,52512
40283,52542
40285,52560
40297,52578
40290,52596
40310,52618
40324,52618
40318,52649
40331,52672
40333,52685
40337,52684
40334,52724
40334,52731
40349,52744
40354,52755
40370,52768
40352,52791
40357,52797
40364,52814
40359,52835
40367,52830
40373,52834
40388,52859
40388,52869
40377,52887
40389,52887
40387,52892
40391,52906
40394,52914
40389,52923
40396,52921
40408,52929
40399,52956
40403,52964
40417,52964
40418,52985
40419,53005
40424,52983
40428,53026
40426,53019
40425,53033
40422,53045
40431,53044
40431,53071
40440,53066
40445,53076
40441,53082
40444,53077
40455,53107
40458,53108
40444,53120
40445,53127
40451,53142
40475,53137
40465,53158
40464,53159
40457,53166
40464,53194
40488,53189
40483,53199
40471,53216
40491,53219
40487,53233
40493,53244
40490,53244
40484,53274
40490,53269
40497,53273
40495,53269
40474,53243
40441,53168
40407,53040
40362,52852
40282,52648
40249,52484
40194,52329
40185,52239
40162,52168
40173,52159
40160,52142
40163,52153
40171,52166
40166,52197
40176,52229
40201,52244
40216,52273
40218,52304
40212,52322
40235,52335
40226,52364
40239,52364
40231,52369
40232,52387
40226,52382
40238,52381
40244,52410
40250,52417
40261,52445
40265,52480
40282,52511
40274,52533
40272,52546
40284,52524
40296,52531
40284,52514
40263,52507
40277,52491
40253,52477
40254,52460
40257,52433
40245,52425
40248,52412
40243,52448
40256,52445
40262,52460
40269,52467
40265,52490
40301,52519
40289,52537
40285,52539
40295,52554
40288,52593
40309,52601
40322,52619
40326,52636
40337,52652
40321,52678
40355,52688
40343,52687
40332,52715
40358,52777
40346,52756
40349,52766
40350,52769
40362,52797
40370,52787
40366,52792
40377,52819
40384,52822
40364,52827
40388,52839
40393,52848
40390,52859
40395,52873
40392,52888
40376,52895
40410,52908
40407,52919
40419,52950
40397,52963
40410,52923
40412,52925
40424,52952
40416,52965
40421,52985
40415,53005
40423,53022
40424,53004
40425,53025
40424,53026
40461,53046
40458,53057
40432,53053
40413,53060
40449,53077
40442,53084
40449,53100
40438,53110
40451,53107
40453,53128
40457,53130
40460,53143
40466,53143
40461,53171
40479,53155
40477,53178
40471,53190
40486,53193
40492,53211
40479,53191
40490,53215
40481,53223
40483,53245
40478,53250
40495,53263
40490,53265
40511,53279
40501,53287
40508,53313
40498,53318
40499,53297
40510,53322
40499,53299
40482,53250
40459,53149
40412,53018
40350,52829
40300,52633
40244,52492
40216,52360
40211,52286
40183,52230
40177,52201
40192,52213
40178,52209
40199,52247
40207,52280
40230,52310
40236,52351
40242,52372
40251,52417
40266,52453
40256,52463
40272,52491
40279,52497
40284,52513
40287,52526
40275,52518
40301,52551
40304,52588
40317,52595
40328,52642
40345,52656
40330,52670
40314,52680
40323,52682
40334,52668
40326,52655
40309,52636
40285,52608
40297,52558
40289,52544
40291,52559
40286,52545
40283,52564
40301,52549
40295,52574
40302,52589
40313,52594
40305,52637
40317,52634
40320,52652
40336,52674
40341,52694
40349,52711
40360,52721
40360,52747
40357,52753
40377,52777
40359,52791
40367,52812
40377,52816
40387,52846
40392,52846
40385,52858
40378,52884
40410,52902
40405,52904
40401,52916
40410,52923
40413,52938
40413,52953
40410,52958
40415,52975
40415,52979
40424,52985
40432,52997
40418,53017
40420,53030
40442,53013
40431,53050
40433,53048
40448,53066
40457,53069
40451,53076
40452,53097
40454,53099
40466,53086
40455,53124
40469,53110
40465,53129
40476,53133
40463,53146
40467,53138
40468,53171
40483,53181
40473,53175
40483,53182
40493,53190
40468,53201
40475,53208
40478,53207
40488,53209
40476,53231
40495,53238
40504,53251
40496,53245
40494,53264
40500,53289
40499,53300
40510,53303
40514,53321
40515,53330
40513,53334
40528,53331
40530,53354
40521,53346
40518,53322
40499,53285
40459,53192
40412,53034
40350,52846
40288,52667
40259,52501
40229,52360
40209,52302
40179,52236
40184,52205
40181,52211
40201,52221
40185,52236
40191,52263
40205,52300
40221,52325
40238,52321
40255,52371
40252,52391
40261,52413
40265,52443
40255,52435
40269,52446
40273,52459
40267,52456
40265,52452
40287,52491
40284,52499
40292,52532
40300,52569
40306,52600
40314,52613
40325,52619
40313,52614
40311,52594
40308,52601
40307,52591
40304,52564
40276,52535
40286,52539
40271,52534
40292,52507
40297,52526
40291,52532
40291,52552
40298,52581
40306,52581
40311,52597
40308,52606
40317,52634
40307,52630
40332,52654
40339,52683
40343,52701
40342,52721
40355,52725
40347,52745
40365,52763
40375,52776
40380,52797
40373,52826
40373,52821
40391,52850
40390,52851
40399,52867
40393,52891
40396,52894
40394,52914
40409,52910
40412,52926
40427,52951
40403,52944
40423,52958
40421,52962
40411,52973
40427,52992
40420,52992
40444,53006
40430,53001
40427,53024
40434,53033
40450,53050
40449,53060
40456,53056
40457,53081
40462,53083
40449,53091
40475,53102
40468,53098
40448,53118
40455,53115
40466,53134
40468,53164
40466,53148
40471,53134
40476,53158
40494,53172
40473,53179
40481,53189
40484,53210
40478,53218
40483,53227
40480,53228
40514,53249
40518,53254
40505,53261
40512,53268
40427,52992
40475,53290
40499,53302
40505,53299
40509,53323
40507,53325
40506,53324
40500,53307
40490,53264
40475,53184
40410,53034
40369,52879
40317,52690
40268,52528
40236,52430
40210,52323
40210,52276
40207,52254
40194,52264
40211,52278
40205,52298
40240,52340
40232,52369
40245,52396
40261,52452
40274,52478
40279,52510
40296,52531
40303,52536
40296,52556
40312,52555
40296,52586
40315,52590
40315,52609
40333,52632
40341,52672
40349,52688
40349,52705
40346,52734
40349,52731
40352,52731
40346,52720
40331,52701
40326,52683
40333,52647
40312,52640
40299,52612
40315,52594
40305,52591
40307,52594
40307,52605
40312,52619
40311,52632
40332,52638
40328,52662
40342,52684
40353,52693
40341,52724
40351,52756
40366,52760
40375,52788
40375,52794
40386,52818
40375,52830
40387,52820
40394,52858
40412,52875
40401,52893
40405,52909
40408,52921
40415,52936
40422,52928
40409,52957
40414,52957
40418,52977
40441,52977
40430,52978
40418,53001
40435,52999
40431,53018
40440,53021
40439,53036
40450,53042
40436,53046
40458,53060
40455,53070
40451,53091
40469,53097
40465,53094
40458,53109
40465,53121
40471,53134
40471,53148
40465,53151
40470,53170
40471,53157
40459,53180
40482,53171
40480,53167
40469,53196
40488,53190
40481,53204
40486,53214
40494,53221
40485,53219
40496,53244
40508,53263
40501,53268
40502,53262
40503,53284
40508,53295
40513,53301
40521,53322
40521,53332
40521,53324
40525,53336
40510,53303
40504,53278
40462,53164
40409,53041
40353,52834
40312,52662
40274,52531
40238,52393
40221,52330
40206,52267
40207,52266
40212,52248
40212,52265
40230,52283
40229,52285
40239,52342
40256,52367
40267,52401
40263,52415
40282,52452
40282,52448
40280,52469
40291,52491
40280,52474
40289,52511
40280,52498
40291,52506
40292,52541
40306,52561
40333,52594
40323,52634
40328,52646
40335,52658
40334,52678
40351,52666
40338,52667
40329,52646
40326,52608
40324,52621
40308,52603
40303,52569
40332,52570
40314,52566
40297,52565
40316,52588
40331,52591
40335,52612
40308,52619
40326,52627
40347,52657
40360,52662
40349,52694
40354,52711
40369,52739
40375,52757
40361,52758
40372,52777
40370,52804
40390,52806
40392,52846
40406,52858
40402,52853
40411,52883
40409,52902
40412,52898
40405,52904
40418,52943
40410,52946
40424,52939
40440,52971
40425,52970
40435,52967
40433,52992
40428,52989
40429,52999
40437,53019
40446,53032
40455,53044
40442,53047
40464,53055
40463,53060
40465,53068
40467,53093
40464,53077
40474,53102
40479,53099
40470,53122
40473,53131
40484,53136
40488,53142
40479,53153
40489,53135
40484,53169
40473,53173
40478,53171
40481,53191
40495,53206
40488,53213
40493,53202
40507,53224
40492,53213
40488,53229
40506,53239
40499,53246
40510,53231
40500,53278
40512,53299
40529,53304
40522,53309
40522,53315
40534,53319
40523,53336
40508,53339
40516,53324
40529,53307
40488,53239
40449,53117
40392,52957
40337,52754
40239,52472
40213,52324
40218,52238
40201,52197
40210,52215
40207,52239
40207,52251
40229,52273
40221,52291
40241,52313
40232,52360
40266,52376
40287,52421
40278,52422
40262,52435
40248,52451
40499,53246
40263,52476
40272,52463
40273,52478
40287,52485
40289,52499
40305,52536
40307,52577
40315,52598
40320,52606
40334,52627
40337,52626
40328,52628
40328,52608
40304,52583
40318,52578
40309,52562
40300,52547
40298,52533
40302,52519
40304,52529
40308,52539
40297,52512
40306,52546
40310,52566
40310,52588
40313,52614
40324,52618
40339,52633
40324,52653
40345,52661
40344,52685
40349,52704
40352,52718
40347,52745
40354,52742
40376,52763
40361,52795
40366,52783
40368,52817
40378,52838
40385,52851
40398,52856
40392,52866
40389,52895
40408,52890
40384,52897
40409,52915
40415,52915
40402,52923
40413,52942
40412,52935
40421,52943
40406,52962
40412,52975
40440,52995
40423,52989
40438,52978
40443,53020
40446,53022
40427,53018
40448,53037
40440,53046
40447,53057
40447,53060
40457,53060
40452,53072
40448,53082
40462,53082
40467,53101
40473,53112
40461,53101
40464,53134
40467,53133
40470,53148
40477,53155
40473,53156
40485,53156
40477,53163
40484,53184
40492,53180
40485,53188
40483,53208
40480,53223
40472,53213
40493,53234
40493,53245
40493,53261
40502,53251
40500,53272
40501,53279
40516,53284
40503,53301
40522,53293
40503,53286
40496,53261
40484,53216
40440,53107
40418,52950
40328,52766
40283,52592
40259,52448
40221,52349
40204,52273
40193,52248
40183,52240
40188,52250
40195,52261
40207,52286
40208,52316
40227,52352
40238,52386
40249,52414
40264,52448
40270,52472
40271,52495
40285,52517
40307,52517
40284,52528
40309,52535
40294,52556
40289,52578
40310,52620
40317,52648
40331,52661
40333,52680
40331,52690
40352,52702
40331,52680
40332,52657
40312,52652
40296,52614
40298,52580
40303,52578
40287,52554
40287,52541
40282,52547
40292,52554
40296,52564
40311,52569
40310,52590
40306,52606
40303,52626
40324,52655
40324,52669
40335,52681
40316,52690
40332,52719
40353,52731
40339,52736
40361,52764
40352,52770
40355,52787
40379,52816
40380,52838
40386,52840
40386,52870
40382,52875
40381,52886
40378,52882
40405,52915
40381,52903
40389,52936
40404,52940
40402,52930
40400,52946
40420,52950
40422,52979
40414,52970
40414,52983
40415,53000
40421,53015
40429,53019
40432,53036
40431,53028
40430,53055
40431,53056
40446,53073
40447,53091
40449,53079
40443,53095
40452,53094
40445,53122
40450,53128
40451,53132
40468,53150
40467,53140
40453,53169
40463,53169
40466,53173
40455,53189
40461,53172
40457,53185
40455,53205
40476,53200
40477,53212
40463,53212
40482,53231
40486,53230
40486,53247
40496,53263
40499,53279
40489,53291
40489,53300
40501,53306
40488,53306
40475,53287
40479,53247
40435,53152
40375,53008
40325,52796
40284,52615
40241,52455
40208,52326
40188,52267
40166,52215
40171,52186
40159,52203
40174,52188
40169,52217
40180,52250
40194,52273
40205,52281
40189,52320
40200,52309
40200,52339
40210,52326
40210,52356
40218,52371
40206,52367
40228,52382
40220,52375
40223,52388
40234,52398
40242,52422
40239,52451
40256,52490
40252,52531
40266,52558
40275,52521
40269,52499
40264,52505
40264,52504
40254,52487
40255,52467
40237,52454
40245,52423
40235,52414
40249,52446
40277,52436
40254,52449
40273,52470
40224,52485
40256,52496
40251,52501
40260,52529
40278,52547
40275,52568
40288,52587
40279,52598
40286,52617
40302,52642
40312,52645
40319,52667
40305,52693
40325,52719
40312,52715
40337,52732
40334,52755
40326,52749
40351,52783
40351,52784
40349,52802
40355,52812
40337,52835
40363,52838
40359,52858
40368,52862
40369,52871
40370,52875
40373,52879
40374,52897
40385,52931
40376,52922
40387,52927
40385,52951
40393,52963
40395,52961
40397,52964
40393,52969
40404,52975
40400,53009
40391,53005
40430,53022
40409,53017
40400,53033
40427,53038
40399,53053
40415,53069
40429,53077
40409,53087
40415,53094
40413,53109
40425,53109
40434,53115
40434,53124
40431,53143
40434,53140
40451,53157
40439,53164
40438,53173
40427,53167
40436,53193
40463,53196
40451,53211
40450,53217
40452,53233
40474,53244
40477,53258
40461,53278
40476,53294
40486,53291
40485,53281
40461,53275
40441,53224
40407,53116
40361,52942
40293,52751
40235,52568
40212,52403
40176,52293
40144,52233
40136,52206
40138,52192
40140,52170
40156,52190
40148,52205
40166,52235
40161,52247
40168,52287
40192,52305
40169,52337
40186,52372
40198,52372
40211,52387
40216,52369
40214,52387
40203,52410
40208,52413
40209,52417
40225,52448
40231,52460
40232,52489
40242,52517
40247,52536
40246,52544
40249,52544
40253,52525
40267,52519
40237,52495
40239,52496
40217,52459
40223,52442
40221,52423
40210,52428
40224,52439
40212,52426
40229,52447
40225,52460
40235,52467
40242,52482
40245,52492
40241,52508
40249,52521
40272,52556
40259,52566
40261,52583
40283,52602
40274,52599
40284,52631
40298,52652
40305,52679
40291,52680
40302,52699
40295,52717
40313,52729
40324,52731
40317,52756
40322,52760
40323,52762
40329,52784
40315,52789
40334,52811
40329,52817
40341,52822
40337,52826
40342,52837
40357,52868
40346,52877
40354,52864
40342,52889
40361,52902
40352,52899
40367,52923
40373,52931
40367,52957
40370,52939
40368,52956
40366,52946
40376,52979
40386,52986
40377,52989
40374,53014
40392,53024
40402,53018
40382,53044
40393,53054
40398,53070
40408,53068
40409,53074
40390,53069
40410,53086
40410,53097
40423,53106
40413,53126
40415,53115
40406,53136
40414,53137
40416,53149
40434,53163
40414,53169
40446,53185
40441,53203
40429,53216
40430,53238
40443,53238
40441,53251
40450,53266
40459,53266
40460,53256
40450,53261
40424,53210
40400,53117
40356,52976
40290,52758
40245,52584
40197,52418
40158,52316
40148,52250
40130,52219
40137,52185
40126,52177
40129,52197
40132,52203
40139,52219
40160,52252
40157,52268
40178,52301
40151,52323
40190,52330
40188,52370
40185,52374
40197,52390
40204,52391
40188,52397
40197,52408
40197,52405
40206,52434
40208,52441
40231,52495
40233,52508
40236,52515
40241,52530
40244,52552
40238,52530
40232,52526
40234,52502
40227,52491
40216,52466
40212,52451
40208,52443
40228,52434
40211,52439
40226,52440
40233,52454
40227,52469
40215,52473
40243,52485
40238,52509
40239,52570
40264,52593
40270,52582
40255,52591
40267,52609
40272,52597
40277,52632
40277,52653
40274,52678
40274,52682
40298,52719
40283,52711
40307,52739
40332,52747
40306,52759
40300,52784
40276,52804
40238,52530
40303,52810
40328,52831
40325,52832
40327,52841
40340,52858
40345,52856
40340,52876
40341,52886
40353,52912
40361,52907
40362,52924
40357,52925
40354,52927
40339,52950
40368,52937
40368,52981
40369,52971
40385,52999
40387,53002
40371,53010
40369,53016
40385,53025
40394,53034
40387,53047
40379,53067
40392,53072
40398,53107
40388,53095
40405,53102
40408,53112
40403,53114
40407,53121
40404,53142
40412,53130
40419,53142
40419,53155
40424,53171
40421,53175
40438,53184
40440,53191
40433,53214
40441,53216
40432,53231
40424,53255
40447,53265
40433,53259
40456,53271
40443,53281
40449,53266
40423,53241
40406,53165
40353,53022
40287,52843
40256,52649
40193,52497
40156,52371
40148,52294
40126,52251
40127,52201
40124,52210
40130,52208
40127,52241
40146,52244
40158,52274
40156,52292
40163,52326
40154,52348
40166,52361
40182,52376
40185,52405
40187,52410
40193,52415
40182,52429
40197,52399
40196,52424
40198,52433
40220,52453
40211,52485
40214,52516
40231,52526
40240,52546
40237,52536
40225,52548
40229,52535
40218,52524
40209,52501
40212,52483
40197,52475
40199,52451
40196,52439
40191,52441
40203,52443
40203,52424
40204,52468
40210,52464
40201,52481
40201,52487
40224,52508
40210,52506
40234,52550
40233,52566
40247,52564
40228,52585
40243,52609
40235,52608
40258,52624
40243,52650
40254,52674
40258,52669
40284,52678
40269,52718
40276,52712
40273,52727
40295,52742
40290,52765
40298,52772
40295,52778
40294,52788
40306,52790
40299,52821
40302,52830
40309,52828
40311,52837
40293,52849
40312,52846
40319,52878
40330,52874
40319,52890
40314,52895
40309,52912
40333,52913
40325,52907
40333,52928
40328,52932
40340,52950
40341,52965
40341,52962
40345,52962
40348,52986
40343,52995
40366,53000
40352,53013
40359,53027
40366,53039
40360,53034
40367,53038
40353,53045
40370,53075
40359,53071
40361,53071
40377,53090
40372,53111
40389,53116
40375,53132
40395,53145
40392,53151
40402,53145
40392,53170
40399,53180
40382,53184
40392,53216
40416,53223
40402,53225
40413,53228
40407,53225
40400,53200
40383,53160
40342,53061
40296,52873
40230,52697
40165,52533
40142,52379
40118,52303
40085,52231
40111,52213
40087,52222
40097,52216
40091,52205
40106,52250
40099,52274
40121,52302
40137,52322
40145,52359
40142,52380
40162,52412
40167,52421
40165,52433
40166,52433
40177,52443
40179,52467
40183,52485
40199,52490
40201,52511
40205,52555
40214,52577
40216,52582
40219,52609
40215,52603
40213,52570
40212,52564
40211,52550
40192,52516
40176,52491
40183,52477
40174,52468
40170,52452
40169,52454
40167,52468
40170,52462
40188,52470
40176,52501
40201,52498
40187,52533
40203,52552
40215,52570
40213,52582
40215,52597
40224,52607
40221,52632
40223,52659
40243,52656
40240,52667
40245,52679
40244,52698
40254,52711
40262,52739
40261,52751
40283,52747
40261,52779
40273,52779
40282,52785
40267,52821
40283,52850
40280,52863
40286,52850
40289,52818
40287,52866
40287,52873
40300,52889
40305,52912
40292,52904
40304,52924
40313,52932
40303,52948
40340,52944
40332,52952
40318,52972
40311,52975
40314,52995
40323,53015
40337,52995
40337,53034
40326,53034
40335,53036
40321,53048
40343,53042
40344,53067
40343,53070
40355,53064
40352,53087
40338,53086
40352,53101
40349,53117
40354,53125
40355,53127
40374,53152
40371,53152
40369,53152
40370,53176
40397,53190
40373,53197
40376,53219
40380,53243
40393,53234
40393,53225
40383,53218
40344,53152
40336,53044
40252,52865
40209,52662
40149,52479
40098,52343
40081,52255
40074,52198
40059,52162
40047,52154
40062,52139
40055,52154
40075,52164
40071,52170
40074,52225
40078,52237
40100,52252
40093,52271
40118,52288
40114,52313
40119,52315
40100,52317
40123,52331
40119,52329
40119,52332
40121,52339
40130,52360
40128,52382
40139,52391
40149,52422
40161,52436
40146,52449
40149,52438
40153,52453
40151,52432
40144,52414
40150,52407
40125,52381
40118,52360
40131,52349
40126,52355
40122,52345
40112,52357
40131,52370
40131,52366
40149,52397
40154,52403
40156,52425
40167,52455
40176,52476
40150,52473
40158,52486
40181,52504
40160,52514
40174,52513
40172,52551
40178,52562
40198,52576
40204,52593
40198,52597
40198,52626
40218,52654
40208,52653
40218,52654
40215,52694
40227,52686
40231,52698
40218,52709
40217,52734
40224,52740
40246,52746
40243,52766
40253,52762
40246,52781
40259,52801
40261,52801
40262,52832
40256,52830
40268,52849
40257,52829
40256,52845
40264,52865
40280,52882
40273,52893
40286,52898
40283,52908
40277,52902
40296,52925
40289,52951
40287,52955
40298,52965
40304,52964
40304,52984
40302,52996
40303,53010
40318,53013
40320,53027
40317,53030
40308,53043
40327,53040
40329,53052
40322,53082
40326,53079
40348,53075
40332,53093
40329,53093
40345,53105
40353,53126
40347,53133
40346,53140
40347,53156
40356,53173
40356,53182
40356,53201
40367,53214
40377,53205
40368,53233
40365,53224
40375,53241
40380,53256
40371,53237
40368,53195
40325,53141
40289,53014
40226,52788
40184,52608
40111,52431
40086,52314
40050,52226
40041,52192
40038,52156
40047,52165
40032,52166
40050,52179
40041,52197
40069,52212
40065,52257
40087,52277
40094,52323
40106,52323
40111,52347
40101,52355
40115,52359
40127,52380
40110,52389
40125,52380
40126,52388
40130,52409
40130,52429
40131,52457
40145,52480
40145,52498
40153,52521
40154,52519
40155,52512
40147,52494
40133,52465
40126,52453
40138,52437
40119,52428
40113,52379
40132,52390
40108,52379
40108,52398
40118,52396
40130,52402
40120,52411
40129,52438
40141,52449
40148,52463
40152,52482
40148,52494
40152,52501
40162,52531
40169,52545
40152,52558
40184,52580
40171,52592
40174,52611
40183,52623
40195,52636
40192,52649
40194,52660
40203,52686
40215,52702
40212,52710
40214,52700
40214,52732
40221,52738
40225,52737
40223,52753
40213,52774
40221,52773
40241,52784
40229,52810
40240,52806
40249,52814
40241,52818
40240,52849
40263,52841
40263,52858
40265,52870
40246,52876
40264,52886
40256,52887
40271,52891
40271,52921
40275,52966
40292,52963
40299,52935
40274,52962
40281,52944
40280,52980
40301,52990
40306,53005
40291,53017
40295,53017
40321,53033
40308,53035
40308,53043
40312,53046
40334,53069
40310,53076
40292,53095
40296,53105
40338,53122
40336,53118
40335,53142
40334,53134
40333,53161
40342,53167
40343,53179
40343,53193
40363,53200
40364,53220
40348,53224
40357,53222
40326,53186
40313,53096
40262,52955
40189,52742
40135,52581
40109,52402
40052,52279
40026,52221
40023,52173
40017,52158
40023,52159
40026,52152
40032,52158
40042,52196
40050,52220
40062,52241
40069,52271
40076,52294
40082,52325
40090,52341
40074,52362
40101,52361
40098,52349
40106,52362
40090,52377
40105,52384
40113,52403
40137,52432
40144,52460
40139,52467
40143,52502
40137,52515
40136,52496
40150,52509
40141,52487
40137,52474
40127,52446
40122,52424
40108,52392
40117,52386
40103,52376
40104,52392
40108,52402
40126,52401
40111,52417
40126,52436
40138,52456
40137,52471
40135,52492
40137,52503
40154,52528
40150,52551
40169,52538
40172,52566
40182,52575
40185,52606
40184,52614
40178,52633
40170,52652
40202,52663
40192,52663
40196,52691
40210,52712
40219,52727
40217,52732
40219,52745
40216,52767
40228,52783
40234,52778
40237,52780
40226,52789
40226,52805
40235,52815
40249,52819
40236,52837
40240,52843
40251,52867
40250,52880
40257,52890
40262,52888
40265,52905
40264,52922
40272,52920
40252,52929
40249,52954
40272,52970
40260,52954
40271,52967
40298,52974
40270,52998
40287,52999
40286,53019
40274,53022
40298,53018
40291,53028
40302,53060
40294,53056
40307,53052
40307,53078
40312,53070
40301,53069
40316,53094
40314,53116
40328,53116
40306,53122
40314,53126
40332,53141
40336,53160
40330,53177
40341,53174
40348,53189
40339,53193
40370,53226
40341,53234
40352,53214
40335,53200
40318,53156
40289,53052
40237,52882
40168,52668
40122,52491
40064,52329
40055,52230
40022,52183
40003,52134
40016,52130
40003,52122
40015,52126
40011,52148
40030,52164
40030,52188
40061,52215
40068,52247
40060,52257
40060,52288
40069,52291
40074,52312
40083,52323
40083,52306
40085,52312
40085,52315
40094,52327
40090,52347
40095,52373
40106,52397
40113,52423
40124,52443
40128,52460
40119,52458
40123,52466
40102,52436
40107,52411
40094,52394
40108,52391
40093,52365
40091,52348
40101,52344
40091,52341
40094,52345
40092,52362
40106,52368
40097,52391
40109,52406
40094,52422
40139,52421
40131,52425
40122,52465
40131,52480
40134,52502
40147,52517
40137,52518
40151,52555
40160,52556
40153,52591
40163,52598
40171,52600
40176,52621
40169,52649
40185,52664
40185,52675
40186,52688
40195,52691
40194,52698
40202,52717
40198,52713
40212,52729
40203,52735
40224,52745
40202,52763
40208,52780
40227,52792
40219,52787
40227,52816
40230,52831
40227,52844
40234,52828
40236,52821
40237,52853
40239,52859
40241,52864
40250,52863
40259,52890
40229,52894
40247,52905
40266,52903
40276,52918
40266,52916
40262,52954
40276,52956
40264,52954
40272,52970
40269,52977
40282,52999
40282,52997
40328,53006
40295,53023
40289,53025
40305,53026
40301,53052
40300,53090
40305,53110
40302,53072
40310,53063
40315,53128
40315,53110
40305,53132
40325,53140
40329,53155
40327,53148
40318,53151
40314,53120
40302,53065
40279,52933
40180,52744
40144,52556
40044,52402
40042,52266
40021,52181
40018,52134
39997,52119
40015,52103
40000,52129
40021,52134
40022,52153
40032,52192
40048,52211
40057,52258
40070,52277
40071,52308
40084,52337
40101,52340
40090,52356
40105,52367
40102,52366
40110,52381
40113,52405
40112,52428
40127,52444
40137,52483
40157,52518
40144,52515
40159,52533
40151,52528
40148,52514
40129,52489
40133,52463
40124,52438
40101,52414
40104,52389
40107,52389
40113,52375
40091,52370
40106,52389
40129,52386
40125,52395
40142,52425
40116,52430
40128,52453
40140,52469
40145,52494
40157,52521
40156,52545
40164,52561
40169,52567
40170,52579
40174,52608
40183,52620
40180,52641
40184,52666
40202,52656
40206,52658
40201,52689
40199,52713
40212,52723
40202,52723
40236,52736
40226,52763
40233,52757
40223,52764
40234,52789
40243,52806
40229,52804
40251,52822
40220,52836
40250,52849
40234,52849
40256,52863
40261,52852
40266,52870
40263,52907
40271,52882
40272,52903
40277,52911
40278,52923
40279,52933
40291,52939
40282,52959
40282,52953
40282,52974
40286,52976
40292,52978
40273,52982
40275,52994
40292,52999
40296,53023
40301,53026
40294,53039
40298,53035
40315,53061
40320,53060
40321,53084
40313,53092
40320,53082
40324,53118
40343,53113
40344,53132
40308,53143
40325,53166
40345,53151
40336,53141
40329,53113
40307,53031
40237,52884
40173,52671
40127,52487
40078,52335
40036,52207
40027,52121
40025,52098
40018,52055
40020,52065
39999,52065
40025,52082
40016,52094
40032,52123
40030,52131
40055,52167
40060,52174
40066,52189
40061,52209
40066,52232
40069,52220
40065,52220
40069,52237
40072,52236
40087,52233
40082,52269
40089,52259
40101,52291
40095,52320
40103,52336
40138,52370
40118,52372
40116,52373
40121,52370
40120,52346
40103,52351
40105,52323
40086,52293
40097,52293
40103,52272
40092,52277
40098,52278
40089,52296
40107,52301
40113,52325
40102,52332
40116,52327
40242,52733
40228,52727
40239,52748
40240,52746
40249,52764
40250,52767
40254,52792
40254,52792
40261,52807
40266,52814
40272,52830
40277,52841
40283,52852
40274,52856
40275,52882
40272,52884
40296,52878
40289,52898
40284,52904
40297,52910
40293,52934
40285,52929
40304,52940
40315,52938
40300,52958
40311,52972
40317,52974
40309,52981
40314,52995
40322,53017
40326,53037
40314,53027
40329,53032
40344,53044
40351,53058
40331,53060
40354,53093
40344,53106
40364,53123
40351,53114
40342,53111
40361,53107
40353,53143
40357,53132
40350,53115
40326,53077
40297,52943
40232,52797
40187,52603
40131,52426
40083,52256
40078,52167
40046,52081
40030,52054
40045,52027
40040,52050
40038,52079
40045,52116
40049,52101
40067,52128
40078,52170
40089,52207
40104,52215
40090,52235
40091,52230
40105,52252
40118,52240
40128,52258
40140,52258
40113,52268
40124,52293
40083,52311
40143,52334
40120,52375
40144,52384
40153,52384
40159,52389
40154,52399
40143,52381
40141,52349
40130,52323
40127,52312
40122,52284
40129,52280
40116,52297
40115,52284
40120,52294
40126,52298
40137,52312
40140,52321
40128,52310
40157,52369
40146,52365
40174,52384
40162,52415
40157,52425
40179,52447
40178,52457
40187,52481
40204,52483
40190,52487
40196,52523
40217,52528
40217,52542
40221,52561
40224,52569
40235,52589
40216,52602
40225,52617
40222,52616
40232,52654
40240,52648
40251,52680
40248,52678
40243,52674
40267,52672
40253,52712
40255,52717
40267,52735
40260,52742
40270,52746
40271,52779
40280,52752
40269,52780
40280,52782
40273,52788
40285,52785
40287,52805
40289,52813
40305,52825
40300,52843
40307,52843
40302,52862
40304,52856
40302,52874
40323,52891
40332,52893
40319,52899
40323,52920
40315,52913
40322,52916
40319,52928
40334,52943
40349,52961
40332,52968
40326,52976
40357,52994
40346,52992
40344,53011
40357,53023
40345,53032
40361,53060
40360,53056
40361,53068
40373,53080
40367,53076
40348,53062
40341,53011
40311,52892
40254,52735
40190,52513
40153,52374
40109,52221
40091,52114
40065,52062
40056,52022
40039,52022
40042,52006
40053,52035
40078,52041
40085,52065
40083,52096
40097,52132
40101,52149
40124,52178
40118,52205
40132,52204
40140,52220
40135,52219
40138,52238
40133,52230
40132,52254
40154,52269
40155,52296
40170,52299
40153,52353
40182,52366
40196,52386
40177,52401
40187,52380
40178,52376
40164,52350
40172,52346
40151,52303
40151,52313
40157,52285
40162,52270
40153,52272
40143,52288
40164,52284
40149,52314
40161,52315
40168,52337
40175,52371
40181,52380
40187,52392
40195,52416
40209,52443
40203,52425
40214,52472
40222,52450
40235,52486
40233,52517
40232,52549
40242,52543
40264,52568
40251,52586
40258,52584
40252,52618
40280,52635
40280,52648
40279,52667
40283,52663
40286,52679
40290,52698
40287,52701
40289,52732
40310,52729
40311,52739
40294,52734
40310,52741
40309,52770
40316,52765
40321,52787
40326,52803
40320,52820
40330,52810
40333,52834
40337,52856
40338,52847
40327,52849
40351,52865
40352,52882
40359,52884
40351,52881
40357,52904
40355,52912
40342,52912
40359,52936
40359,52937
40366,52941
40360,52934
40375,52949
40377,52964
40362,52972
40389,52986
40360,52979
40385,53004
40384,53007
40388,53019
40382,53038
40399,53047
40395,53064
40414,53082
40399,53089
40424,53101
40422,53119
40420,53109
40413,53127
40394,53093
40373,53034
40345,52916
40284,52752
40213,52541
40201,52369
40137,52224
40104,52126
40077,52049
40079,52006
40082,51983
40067,51994
40092,51999
40096,52006
40102,52042
40113,52065
40110,52076
40112,52131
40113,52147
40131,52128
40144,52160
40145,52174
40144,52157
40142,52194
40146,52187
40152,52180
40148,52210
40149,52203
40171,52236
40173,52262
40178,52295
40201,52303
40221,52329
40194,52337
40198,52346
40209,52315
40195,52319
40165,52286
40170,52234
40161,52210
40190,52200
40165,52234
40172,52247
40181,52266
40181,52261
40192,52288
40198,52287
40194,52301
40220,52309
40224,52348
40228,52360
40209,52385
40206,52391
40208,52400
40221,52436
40233,52443
40240,52441
40248,52472
40265,52498
40268,52517
40256,52517
40272,52548
40273,52561
40276,52567
40283,52593
40299,52597
40290,52616
40292,52624
40309,52621
40291,52638
40301,52654
40316,52646
40308,52658
40308,52673
40321,52682
40325,52690
40323,52708
40332,52711
40335,52728
40328,52759
40330,52750
40348,52762
40337,52770
40335,52772
40353,52789
40334,52815
40357,52803
40357,52822
40349,52815
40352,52827
40364,52853
40373,52836
40373,52855
40374,52876
40370,52882
40385,52893
40370,52894
40397,52906
40387,52901
40377,52909
40396,52926
40401,52950
40391,52957
40406,52960
40409,52986
40405,52992
40418,53000
40427,53014
40426,53025
40422,53042
40422,53039
40428,53039
40416,53056
40422,53055
40411,53025
40381,52966
40347,52833
40295,52663
40241,52445
40184,52287
40150,52176
40136,52083
40122,52053
40104,52023
40102,52005
40106,52013
40123,52009
40140,52047
40139,52084
40151,52119
40161,52133
40163,52163
40176,52195
40193,52210
40190,52235
40198,52252
40192,52255
40198,52242
40199,52260
40212,52272
40220,52312
40226,52339
40218,52360
40237,52393
40243,52415
40252,52414
40249,52423
40258,52401
40244,52375
40221,52364
40240,52335
40219,52328
40213,52282
40200,52290
40210,52288
40214,52300
40217,52297
40219,52315
40229,52319
40222,52335
40224,52363
40246,52358
40248,52391
40243,52408
40252,52438
40280,52452
40276,52475
40285,52484
40294,52502
40290,52517
40301,52540
40285,52570
40305,52567
40322,52580
40316,52594
40320,52615
40312,52648
40333,52657
40339,52643
40324,52654
40338,52660
40338,52677
40335,52684
40347,52699
40350,52706
40355,52724
40351,52734
40351,52742
40356,52745
40377,52765
40378,52774
40383,52786
40381,52795
40380,52798
40379,52813
40373,52815
40392,52844
40392,52845
40404,52833
40392,52880
40414,52874
40391,52891
40396,52889
40392,52899
40411,52892
40399,52918
40402,52923
40425,52940
40420,52932
40429,52951
40420,52958
40428,52965
40433,52986
40445,52978
40430,52994
40425,53014
40444,53022
40435,53028
40450,53037
40445,53064
40462,53064
40451,53080
40469,53096
40458,53103
40466,53116
40465,53113
40439,53078
40415,53022
40381,52898
40340,52710
40260,52510
40208,52339
40177,52195
40142,52076
40127,52023
40121,51996
40115,51972
40135,51969
40130,51992
40131,52007
40132,52037
40145,52052
40157,52070
40165,52097
40175,52105
40180,52129
40168,52140
40174,52157
40198,52166
40196,52148
40198,52149
40189,52160
40198,52174
40195,52200
40217,52221
40209,52231
40225,52267
40227,52260
40243,52319
40239,52300
40240,52293
40225,52285
40222,52284
40217,52251
40230,52253
40205,52223
40220,52235
40213,52201
40209,52215
40223,52236
40219,52233
40218,52247
40226,52225
40228,52293
40239,52308
40258,52315
40239,52328
40258,52362
40251,52362
40272,52378
40275,52400
40276,52426
40312,52435
40290,52431
40310,52464
40302,52489
40312,52492
40304,52581
40321,52582
40310,52572
40322,52554
40350,52588
40322,52585
40337,52613
40329,52615
40339,52641
40347,52637
40350,52661
40352,52678
40392,52682
40402,52679
40354,52689
40351,52698
40339,52694
40355,52728
40367,52737
40391,52740
40391,52744
40380,52756
40375,52776
40382,52780
40387,52792
40407,52807
40401,52813
40401,52823
40405,52829
40415,52838
40412,52844
40405,52864
40417,52862
40433,52885
40419,52886
40425,52909
40430,52914
40431,52947
40430,52930
40445,52937
40451,52945
40453,52948
40449,52968
40448,52976
40465,52994
40459,53000
40471,52993
40455,53007
40458,53021
40469,53020
40476,53059
40462,53062
40475,53061
40485,53077
40480,53078
40480,53096
40480,53120
40483,53117
40481,53126
40487,53114
40470,53072
40433,52980
40395,52850
40325,52640
40280,52456
40230,52295
40189,52160
40160,52076
40171,52039
40146,52016
40173,51999
40159,52023
40163,52052
40171,52083
40189,52096
40203,52131
40203,52164
40208,52193
40227,52215
40236,52236
40234,52239
40236,52268
40236,52258
40235,52267
40260,52276
40246,52288
40257,52307
40260,52320
40279,52345
40276,52387
40295,52394
40280,52426
40293,52408
40274,52390
40270,52378
40269,52346
40251,52333
40249,52305
40245,52288
40252,52298
40244,52276
40245,52262
40248,52277
40257,52285
40260,52287
40249,52303
40264,52324
40276,52345
40268,52373
40277,52385
40300,52408
40289,52411
40305,52452
40301,52470
40312,52474
40336,52490
40334,52517
40338,52522
40329,52539
40342,52565
40345,52567
40369,52582
40346,52594
40357,52585
40344,52620
40382,52632
40358,52633
40362,52644
40378,52668
40388,52660
40378,52702
40382,52687
40384,52699
40392,52712
40400,52720
40396,52738
40400,52738
40398,52739
40398,52761
40404,52765
40417,52779
40412,52797
40409,52804
40412,52789
40422,52813
40421,52837
40421,52851
40435,52847
40434,52861
40434,52872
40445,52860
40434,52888
40454,52878
40446,52894
40451,52903
40467,52926
40451,52920
40439,52921
40458,52945
40461,52951
40461,52964
40469,52984
40477,52995
40481,52991
40476,53013
40482,53024
40475,53043
40493,53050
40497,53059
40494,53076
40506,53078
40500,53078
40487,53064
40474,53011
40439,52936
40381,52769
40334,52550
40273,52379
40219,52227
40194,52133
40172,52048
40180,52009
40158,51990
40158,51988
40171,51989
40175,52011
40182,52022
40189,52078
40203,52082
40209,52110
40222,52140
40232,52162
40226,52158
40222,52178
40235,52184
40237,52183
40244,52193
40233,52207
40243,52212
40261,52233
40268,52255
40266,52274
40264,52303
40273,52321
40285,52341
40296,52344
40293,52317
40275,52307
40263,52292
40258,52265
40253,52260
40246,52233
40243,52222
40248,52225
40239,52207
40257,52223
40261,52236
40239,52238
40262,52279
40267,52276
40287,52298
40284,52317
40279,52309
40299,52358
40291,52375
40298,52394
40314,52396
40314,52435
40307,52443
40321,52451
40331,52472
40335,52502
40353,52502
40337,52526
40336,52547
40351,52545
40363,52575
40353,52570
40349,52582
40380,52621
40386,52598
40380,52626
40377,52632
40384,52639
40384,52663
40392,52689
40393,52679
40395,52702
40396,52709
40398,52718
40412,52764
40409,52785
40420,52786
40423,52767
40420,52781
40438,52771
40431,52783
40431,52820
40427,52821
40437,52843
40438,52853
40435,52854
40456,52851
40467,52893
40454,52885
40467,52897
40446,52907
40449,52926
40446,52921
