39762,53737
39795,53768
39751,53761
39742,53774
39750,53801
39771,53789
39759,53797
39762,53813
39753,53807
39777,53808
39763,53832
39779,53820
39768,53824
39762,53843
39783,53844
39781,53842
39795,53863
39783,53857
39783,53866
39781,53855
39781,53872
39781,53885
39796,53880
39785,53888
39787,53897
39790,53896
39799,53892
39771,53894
39775,53923
39784,53931
39802,53909
39788,53917
39796,53915
39798,53942
39800,53943
39794,53958
39809,53971
39804,53960
39802,53990
39792,53976
39799,53967
39796,53941
39759,53888
39749,53793
39720,53668
39672,53511
39626,53377
39631,53276
39582,53201
39579,53148
39594,53113
39592,53105
39584,53083
39589,53115
39594,53123
39601,53160
39614,53200
39618,53207
39632,53227
39621,53267
39639,53265
39650,53303
39645,53306
39653,53337
39653,53334
39647,53338
39664,53360
39664,53373
39666,53386
39677,53428
39675,53449
39682,53474
39683,53481
39692,53493
39687,53509
39678,53492
39687,53476
39676,53470
39683,53471
39684,53460
39658,53427
39685,53426
39667,53445
39671,53424
39676,53418
39661,53438
39657,53413
39676,53431
39656,53445
39674,53461
39663,53459
39670,53479
39691,53465
39682,53502
39708,53497
39688,53520
39690,53526
39703,53544
39699,53560
39713,53583
39702,53578
39708,53586
39713,53597
39700,53609
39717,53618
39710,53626
39716,53640
39714,53645
39726,53671
39725,53665
39720,53656
39730,53669
39720,53684
39747,53693
39738,53699
39738,53720
39751,53719
39744,53729
39751,53720
39755,53745
39746,53751
39745,53745
39742,53750
39744,53751
39740,53780
39746,53775
39754,53796
39739,53792
39763,53786
39768,53812
39768,53801
39757,53813
39776,53822
39754,53822
39766,53819
39771,53832
39768,53839
39760,53833
39764,53839
39755,53835
39762,53847
39772,53859
39776,53851
39776,53882
39774,53866
39761,53876
39770,53880
39776,53890
39785,53892
39793,53896
39772,53905
39778,53911
39773,53932
39790,53932
39788,53928
39775,53945
39783,53949
39794,53946
39777,53958
39769,53966
39776,53934
39768,53906
39751,53833
39726,53724
39680,53590
39650,53442
39635,53341
39611,53244
39587,53187
39564,53134
39585,53128
39568,53122
39591,53126
39591,53146
39588,53193
39605,53197
39623,53232
39637,53272
39634,53292
39635,53332
39644,53342
39644,53371
39648,53374
39659,53413
39652,53420
39677,53443
39674,53467
39684,53477
39683,53504
39690,53534
39704,53553
39707,53569
39711,53569
39690,53561
39698,53565
39690,53554
39673,53540
39678,53520
39677,53483
39692,53499
39669,53461
39666,53460
39672,53454
39681,53471
39669,53458
39683,53474
39677,53475
39674,53492
39674,53515
39679,53507
39680,53550
39693,53532
39676,53549
39697,53551
39700,53587
39710,53582
39697,53605
39704,53611
39717,53623
39724,53624
39720,53648
39729,53613
39732,53648
39715,53679
39727,53670
39723,53694
39714,53695
39744,53695
39725,53730
39726,53719
39745,53725
39739,53709
39739,53739
39733,53744
39746,53753
39746,53772
39755,53794
39755,53777
39756,53754
39760,53762
39748,53803
39748,53804
39762,53806
39760,53816
39762,53839
39749,53846
39768,53842
39786,53826
39780,53851
39757,53838
39755,53839
39740,53850
39758,53868
39761,53860
39769,53856
39765,53880
39763,53871
39778,53884
39776,53886
39767,53894
39771,53894
39779,53914
39782,53920
39774,53923
39788,53941
39769,53950
39799,53928
39777,53943
39782,53933
39762,53900
39748,53840
39734,53747
39699,53596
39649,53457
39619,53325
39590,53220
39566,53147
39566,53094
39553,53065
39555,53070
39558,53041
39545,53060
39562,53084
39587,53084
39586,53128
39591,53140
39592,53166
39607,53198
39588,53203
39611,53214
39609,53243
39620,53260
39621,53259
39630,53287
39628,53292
39628,53297
39632,53320
39638,53352
39658,53365
39654,53390
39664,53424
39662,53436
39672,53434
39667,53424
39662,53421
39665,53416
39648,53408
39639,53395
39666,53378
39656,53386
39622,53372
39649,53357
39628,53355
39633,53349
39637,53369
39651,53374
39649,53376
39647,53385
39634,53405
39647,53421
39666,53430
39664,53432
39647,53468
39668,53469
39651,53463
39680,53496
39682,53494
39686,53522
39680,53525
39683,53531
39693,53552
39695,53570
39691,53567
39694,53580
39701,53587
39687,53605
39709,53623
39696,53616
39710,53620
39708,53643
39721,53639
39720,53663
39724,53652
39720,53667
39712,53682
39725,53685
39709,53691
39720,53688
39724,53714
39727,53724
39716,53719
39716,53733
39753,53721
39718,53744
39738,53739
39739,53754
39739,53757
39737,53752
39735,53745
39741,53758
39742,53794
39736,53777
39750,53781
39738,53790
39736,53788
39767,53813
39733,53820
39741,53806
39745,53809
39758,53818
39745,53837
39748,53825
39749,53840
39754,53842
39754,53866
39762,53858
39759,53861
39759,53876
39766,53884
39761,53887
39769,53896
39765,53909
39775,53907
39765,53913
39766,53887
39744,53884
39735,53823
39713,53735
39692,53613
39647,53454
39611,53311
39578,53193
39551,53140
39534,53061
39551,53029
39542,53022
39542,53004
39551,53022
39555,53050
39566,53059
39569,53093
39571,53123
39581,53151
39588,53158
39592,53202
39608,53224
39600,53236
39599,53261
39616,53272
39613,53265
39624,53285
39625,53313
39636,53335
39637,53376
39642,53395
39650,53402
39655,53418
39651,53426
39659,53445
39651,53435
39643,53420
39656,53407
39631,53389
39628,53381
39640,53361
39623,53338
39618,53341
39628,53328
39624,53308
39631,53310
39619,53314
39637,53322
39636,53353
39631,53361
39637,53366
39635,53378
39651,53398
39651,53403
39637,53406
39656,53433
39634,53440
39654,53438
39672,53460
39675,53476
39659,53499
39677,53492
39673,53524
39673,53522
39674,53534
39686,53541
39688,53537
39683,53550
39683,53568
39682,53547
39704,53590
39695,53587
39695,53612
39699,53617
39683,53605
39688,53614
39705,53618
39704,53633
39716,53645
39690,53654
39714,53663
39701,53664
39711,53673
39697,53665
39709,53664
39730,53689
39712,53676
39724,53696
39723,53704
39713,53706
39719,53705
39726,53712
39713,53716
39727,53721
39720,53736
39725,53726
39732,53742
39704,53751
39732,53744
39735,53767
39726,53773
39718,53799
39730,53765
39734,53739
39734,53763
39737,53795
39742,53814
39740,53832
39729,53828
39728,53823
39740,53844
39753,53832
39763,53821
39757,53765
39708,53705
39648,53572
39638,53447
39584,53295
39565,53155
39544,53077
39532,53014
39509,52965
39518,52937
39520,52939
39521,52921
39527,52945
39519,52959
39545,53011
39537,53032
39551,53043
39556,53073
39583,53092
39575,53119
39571,53142
39561,53160
39583,53165
39603,53177
39587,53190
39593,53217
39605,53243
39611,53267
39613,53299
39618,53334
39630,53352
39617,53364
39631,53355
39632,53364
39623,53340
39619,53329
39617,53310
39605,53305
39617,53286
39599,53267
39600,53253
39599,53254
39585,53240
39594,53257
39592,53253
39609,53259
39599,53264
39610,53285
39632,53286
39610,53287
39614,53322
39613,53326
39620,53337
39628,53370
39642,53375
39631,53378
39657,53395
39651,53417
39649,53429
39650,53439
39659,53450
39639,53461
39653,53478
39678,53488
39656,53492
39658,53503
39671,53517
39674,53526
39672,53531
39671,53527
39676,53539
39664,53547
39684,53553
39677,53545
39678,53583
39672,53577
39697,53576
39688,53594
39694,53613
39694,53605
39684,53620
39695,53645
39691,53624
39694,53633
39705,53638
39693,53655
39700,53663
39704,53674
39697,53673
39711,53668
39706,53670
39713,53682
39710,53702
39709,53699
39716,53692
39701,53706
39714,53702
39716,53728
39716,53700
39710,53726
39709,53717
39720,53728
39714,53738
39721,53739
39729,53754
39724,53760
39729,53772
39708,53782
39732,53787
39732,53772
39727,53800
39733,53790
39732,53775
39705,53729
39685,53644
39654,53521
39609,53392
39578,53198
39535,53080
39508,52974
39489,52910
39478,52848
39487,52833
39496,52803
39489,52838
39478,52824
39485,52850
39490,52854
39509,52893
39517,52911
39508,52921
39525,52952
39524,52986
39524,52996
39535,53017
39530,53020
39556,53036
39550,53046
39546,53060
39553,53072
39559,53111
39572,53123
39576,53150
39601,53173
39590,53195
39582,53213
39597,53202
39595,53210
39583,53196
39583,53182
39571,53172
39578,53155
39570,53139
39563,53128
39557,53127
39556,53109
39571,53117
39556,53119
39562,53137
39563,53134
39563,53151
39568,53159
39588,53176
39593,53188
39595,53203
39582,53211
39597,53222
39595,53231
39611,53258
39595,53264
39599,53270
39612,53297
39621,53312
39606,53322
39627,53341
39620,53335
39630,53367
39632,53377
39648,53374
39630,53389
39615,53414
39635,53413
39639,53403
39638,53447
39657,53451
39643,53442
39655,53452
39646,53458
39662,53453
39670,53468
39662,53492
39675,53495
39671,53506
39677,53490
39670,53507
39671,53509
39673,53537
39687,53522
39687,53540
39661,53553
39683,53554
39668,53550
39681,53577
39687,53585
39693,53580
39669,53576
39693,53591
39691,53594
39689,53606
39687,53591
39681,53604
39706,53630
39692,53625
39706,53629
39689,53635
39683,53638
39698,53639
39709,53646
39701,53665
39698,53696
39704,53675
39711,53683
39702,53676
39714,53694
39708,53706
39731,53721
39707,53721
39736,53726
39712,53738
39736,53731
39719,53735
39720,53741
39725,53704
39677,53636
39620,53412
39576,53257
39540,53121
39521,52989
39499,52899
39481,52812
39464,52804
39474,52788
39480,52787
39475,52795
39498,52827
39495,52843
39496,52877
39540,52904
39522,52940
39540,52957
39503,52986
39512,53020
39532,53022
39544,53033
39545,53063
39555,53066
39555,53082
39569,53111
39579,53125
39583,53161
39576,53187
39583,53206
39590,53233
39595,53222
39598,53242
39594,53230
39586,53215
39586,53211
39576,53191
39583,53160
39563,53148
39565,53126
39566,53109
39553,53118
39559,53105
39567,53112
39548,53117
39583,53133
39569,53136
39572,53142
39587,53167
39611,53197
39599,53194
39608,53211
39592,53223
39608,53237
39608,53241
39603,53260
39610,53273
39611,53282
39601,53299
39621,53316
39623,53326
39638,53342
39629,53345
39634,53364
39632,53369
39634,53363
39646,53380
39642,53397
39654,53396
39634,53405
39640,53409
39648,53417
39648,53434
39649,53428
39651,53454
39655,53455
39661,53472
39655,53462
39666,53477
39675,53495
39667,53476
39681,53499
39669,53523
39673,53510
39659,53508
39661,53527
39661,53524
39666,53549
39673,53542
39677,53546
39677,53547
39695,53565
39679,53568
39692,53576
39667,53574
39691,53577
39679,53591
39684,53600
39697,53600
39689,53611
39699,53601
39691,53617
39688,53646
39704,53648
39704,53636
39710,53655
39710,53662
39706,53667
39714,53654
39705,53668
39697,53655
39700,53625
39664,53538
39628,53430
39590,53271
39544,53118
39528,52997
39493,52907
39492,52823
39483,52791
39468,52748
39480,52746
39471,52760
39475,52774
39483,52781
39490,52796
39502,52855
39507,52868
39511,52898
39522,52932
39531,52939
39530,52970
39548,52990
39549,52999
39550,53018
39548,53031
39559,53047
39559,53077
39565,53108
39580,53136
39596,53162
39603,53188
39583,53195
39585,53205
39600,53203
39597,53191
39579,53167
39575,53162
39585,53120
39568,53110
39568,53101
39562,53076
39576,53085
39561,53079
39567,53088
39568,53076
39567,53102
39567,53111
39571,53119
39585,53147
39587,53137
39578,53169
39585,53177
39590,53180
39590,53217
39599,53225
39599,53241
39613,53241
39607,53263
39608,53286
39601,53289
39616,53316
39635,53315
39628,53331
39639,53346
39641,53337
39641,53357
39628,53366
39653,53357
39647,53377
39636,53398
39649,53401
39643,53425
39658,53425
39657,53428
39666,53433
39650,53444
39646,53441
39664,53448
39675,53450
39663,53466
39663,53493
39675,53500
39664,53503
39660,53514
39679,53510
39678,53513
39671,53527
39678,53533
39678,53551
39684,53540
39683,53557
39679,53546
39682,53569
39680,53572
39694,53578
39682,53583
39698,53581
39700,53582
39687,53585
39702,53593
39698,53613
39700,53620
39700,53612
39694,53631
39714,53628
39708,53634
39706,53655
39706,53659
39706,53660
39721,53677
39713,53677
39690,53633
39673,53579
39656,53492
39604,53342
39567,53177
39521,53034
39495,52924
39483,52812
39467,52761
39450,52712
39448,52698
39463,52681
39468,52696
39460,52711
39476,52725
39473,52727
39493,52771
39489,52796
39497,52825
39505,52841
39510,52859
39506,52881
39518,52879
39518,52911
39513,52911
39557,52929
39518,52929
39525,52956
39538,52961
39555,53018
39562,53094
39561,53077
39566,53076
39562,53051
39557,53088
39574,53054
39550,53052
39544,53054
39565,53029
39543,53023
39547,53018
39563,53003
39559,53000
39578,53013
39547,53015
39520,53013
39476,52725
39542,53037
39562,53055
39564,53057
39566,53077
39589,53099
39585,53103
39585,53118
39593,53131
39583,53166
39596,53159
39603,53175
39602,53193
39600,53206
39614,53217
39615,53235
39607,53253
39629,53275
39620,53284
39626,53291
39614,53285
39623,53304
39626,53309
39638,53322
39626,53328
39643,53330
39625,53323
39612,53338
39638,53327
39627,53351
39628,53354
39631,53357
39636,53372
39640,53363
39642,53384
39636,53376
39639,53402
39660,53396
39655,53395
39644,53430
39649,53410
39653,53422
39656,53429
39640,53429
39651,53457
39654,53454
39657,53447
39653,53464
39673,53456
39673,53482
39646,53483
39679,53482
39650,53496
39668,53499
39670,53516
39670,53514
39665,53524
39669,53515
39663,53540
39672,53525
39683,53555
39678,53569
39687,53571
39672,53574
39689,53565
39685,53577
39684,53595
39690,53596
39682,53587
39686,53594
39692,53603
39680,53567
39668,53516
39624,53409
39578,53279
39539,53090
39523,52962
39484,52866
39456,52758
39461,52720
39444,52678
39432,52671
39448,52667
39444,52685
39451,52676
39455,52715
39471,52740
39485,52764
39483,52821
39516,52846
39496,52835
39500,52888
39506,52885
39526,52895
39512,52934
39530,52947
39532,52958
39520,52973
39539,52984
39544,53016
39567,53039
39560,53088
39563,53102
39561,53094
39566,53095
39556,53101
39546,53089
39562,53071
39547,53055
39542,53029
39544,53030
39546,53001
39523,52995
39540,52993
39528,52994
39527,53000
39538,52981
39528,52997
39550,53030
39547,53046
39555,53048
39561,53068
39565,53078
39559,53099
39572,53099
39567,53118
39574,53120
39572,53146
39571,53154
39584,53165
39588,53177
39595,53197
39586,53206
39586,53221
39591,53229
39598,53242
39607,53251
39594,53255
39614,53266
39604,53279
39610,53289
39622,53296
39624,53317
39616,53312
39613,53330
39620,53332
39633,53349
39618,53352
39616,53367
39626,53371
39636,53368
39638,53364
39643,53387
39630,53407
39637,53400
39642,53400
39653,53405
39648,53424
39655,53427
39668,53425
39642,53444
39643,53457
39649,53444
39650,53451
39652,53457
39665,53462
39649,53476
39655,53466
39652,53475
39664,53477
39651,53490
39655,53498
39660,53492
39669,53505
39657,53525
39666,53538
39682,53549
39677,53553
39681,53563
39670,53552
39673,53564
39663,53581
39677,53593
39663,53581
39681,53563
39669,53530
39629,53437
39601,53316
39546,53159
39539,53016
39510,52899
39472,52813
39468,52743
39461,52721
39466,52698
39461,52688
39458,52710
39467,52739
39482,52768
39488,52785
39498,52828
39509,52852
39511,52867
39520,52902
39522,52929
39518,52965
39531,52959
39537,52977
39553,52987
39553,53009
39560,53022
39563,53057
39562,53080
39581,53106
39579,53134
39590,53141
39590,53160
39579,53144
39574,53145
39576,53116
39573,53120
39552,53103
39549,53072
39550,53072
39555,53048
39550,53047
39561,53046
39554,53036
39567,53049
39565,53061
39555,53064
39553,53086
39569,53104
39563,53104
39572,53167
39587,53167
39582,53173
39585,53160
39592,53203
39603,53175
39597,53214
39598,53236
39607,53243
39615,53260
39607,53276
39614,53272
39634,53300
39644,53301
39622,53313
39617,53319
39609,53332
39576,53116
39626,53355
39623,53354
39640,53366
39635,53378
39651,53385
39640,53383
39654,53396
39644,53420
39641,53424
39643,53429
39645,53419
39660,53434
39651,53446
39663,53450
39661,53458
39659,53449
39663,53460
39656,53482
39675,53479
39659,53494
39674,53497
39663,53499
39672,53500
39666,53504
39674,53520
39660,53524
39673,53528
39684,53542
39671,53531
39680,53540
39680,53547
39684,53554
39668,53556
39675,53565
39696,53561
39674,53598
39688,53609
39696,53614
39689,53605
39694,53615
39696,53631
39703,53621
39682,53629
39713,53612
39671,53575
39646,53502
39622,53382
39582,53214
39537,53069
39504,52944
39481,52852
39472,52771
39465,52717
39460,52695
39458,52702
39466,52702
39476,52706
39484,52750
39471,52757
39495,52776
39504,52815
39509,52839
39516,52866
39526,52885
39525,52892
39542,52912
39530,52916
39528,52945
39540,52958
39543,52949
39543,52975
39551,53004
39552,53016
39560,53066
39564,53079
39602,53085
39574,53107
39578,53105
39572,53114
39572,53105
39578,53085
39581,53090
39550,53056
39558,53045
39556,53034
39560,53020
39559,53022
39544,53031
39553,53036
39559,53050
39554,53050
39566,53052
39562,53071
39572,53074
39577,53096
39574,53109
39580,53132
39597,53135
39577,53158
39590,53146
39602,53184
39605,53193
39591,53204
39599,53215
39610,53222
39607,53247
39609,53225
39620,53271
39626,53285
39610,53294
39631,53293
39626,53307
39611,53325
39632,53337
39628,53339
39627,53337
39622,53349
39634,53366
39648,53366
39633,53397
39650,53404
39644,53396
39651,53403
39647,53416
39660,53434
39650,53437
39642,53427
39658,53447
39656,53448
39647,53443
39652,53475
39671,53465
39662,53491
39668,53480
39654,53476
39675,53488
39683,53495
39665,53506
39664,53502
39676,53502
39658,53525
39685,53527
39661,53521
39674,53545
39673,53535
39679,53541
39684,53542
39674,53562
39681,53565
39688,53591
39706,53594
39696,53598
39692,53597
39712,53602
39690,53625
39687,53644
39691,53625
39703,53609
39678,53573
39672,53524
39639,53423
39595,53282
39568,53124
39538,53007
39491,52908
39499,52839
39480,52792
39471,52750
39481,52748
39474,52743
39486,52784
39493,52795
39501,52824
39512,52855
39520,52910
39537,52913
39547,52971
39549,52969
39566,52987
39552,53020
39562,53040
39568,53060
39573,53044
39564,53074
39568,53071
39599,53107
39610,53142
39600,53159
39617,53180
39593,53212
39619,53219
39600,53208
39606,53199
39607,53202
39594,53167
39595,53142
39587,53149
39573,53107
39559,53099
39572,53073
39578,53099
39566,53100
39567,53120
39586,53112
39572,53120
39575,53131
39587,53143
39585,53152
39607,53168
39590,53189
39597,53203
39597,53212
39622,53227
39614,53240
39603,53259
39614,53263
39622,53253
39624,53296
39627,53291
39629,53291
39616,53308
39631,53320
39632,53328
39644,53330
39641,53369
39640,53352
39630,53371
39636,53361
39652,53377
39655,53388
39647,53397
39657,53413
39606,53407
39658,53427
39663,53457
39672,53481
39662,53483
39658,53427
39654,53427
39667,53453
39662,53476
39669,53488
39673,53488
39679,53491
39684,53501
39678,53510
39676,53512
39703,53508
39672,53521
39653,53523
39665,53530
39690,53542
39670,53557
39683,53560
39683,53572
39684,53566
39662,53564
39691,53583
39697,53586
39688,53582
39691,53601
39694,53593
39710,53611
39713,53616
39702,53620
39685,53632
39707,53641
39709,53652
39693,53644
39717,53647
39718,53662
39714,53666
39711,53668
39692,53670
39709,53636
39673,53565
39638,53451
39618,53318
39562,53170
39530,53043
39505,52960
39496,52879
39494,52827
39494,52809
39486,52789
39494,52811
39503,52829
39521,52858
39518,52880
39550,52924
39552,52935
39549,52960
39552,53016
39559,53032
39576,53058
39582,53070
39577,53077
39579,53101
39568,53103
39585,53137
39605,53142
39592,53175
39607,53204
39630,53243
39624,53249
39621,53259
39613,53255
39609,53262
39605,53251
39607,53246
39607,53222
39615,53203
39592,53189
39588,53173
39573,53164
39587,53171
39582,53158
39600,53170
39586,53168
39593,53167
39585,53184
39594,53208
39601,53207
39600,53228
39615,53248
39604,53252
39617,53257
39626,53276
39626,53281
39639,53309
39632,53308
39626,53322
39637,53334
39648,53347
39633,53354
39639,53378
39657,53386
39649,53393
39648,53400
39657,53402
39661,53413
39653,53435
39663,53446
39663,53443
39660,53465
39657,53459
39670,53472
39669,53468
39676,53473
39672,53483
39669,53506
39685,53512
39672,53517
39671,53514
39682,53537
39669,53535
39693,53541
39676,53550
39692,53542
39676,53564
39675,53575
39697,53588
39679,53583
39689,53584
39686,53589
39696,53599
39689,53603
39699,53601
39703,53613
39695,53610
39690,53620
39699,53636
39710,53635
39700,53650
39690,53642
39704,53656
39715,53651
39701,53660
39705,53668
39723,53684
39705,53696
39717,53696
39716,53695
39711,53703
39712,53724
39721,53702
39713,53673
39685,53601
39655,53477
39603,53359
39582,53189
39541,53071
39522,52968
39503,52900
39484,52834
39488,52822
39472,52808
39484,52818
39502,52816
39518,52843
39515,52867
39519,52895
39532,52938
39536,52961
39554,52990
39552,53008
39533,53027
39564,53032
39545,53058
39576,53064
39570,53094
39572,53104
39572,53093
39584,53133
39588,53153
39603,53177
39610,53199
39610,53216
39620,53229
39607,53232
39600,53235
39605,53237
39609,53219
39604,53200
39595,53197
39601,53189
39593,53169
39588,53156
39581,53143
39584,53145
39590,53173
39572,53158
39571,53158
39596,53178
39589,53193
39600,53194
39604,53202
39595,53212
39612,53222
39620,53239
39618,53264
39611,53258
39607,53276
39622,53316
39632,53310
39634,53328
39630,53331
39627,53347
39629,53355
39644,53378
39631,53370
39640,53378
39638,53392
39640,53406
39634,53422
39636,53415
39653,53427
39655,53436
39652,53436
39644,53461
39657,53465
39663,53462
39650,53482
39668,53480
39673,53494
39666,53490
39675,53508
39676,53489
39679,53521
39673,53517
39668,53531
39676,53528
39678,53503
39682,53556
39681,53558
39685,53561
39678,53568
39688,53569
39684,53581
39681,53579
39687,53586
39682,53598
39707,53594
39693,53600
39683,53605
39690,53611
39689,53609
39701,53655
39696,53648
39705,53619
39693,53629
39715,53668
39704,53674
39702,53666
39705,53673
39698,53687
39703,53685
39723,53697
39750,53707
39720,53700
39724,53682
39685,53597
39637,53508
39676,53528
39576,53239
39546,53105
39542,53010
39517,52950
39500,52884
39491,52856
39496,52865
39502,52875
39504,52888
39509,52907
39524,52941
39545,52956
39541,52995
39558,53036
39562,53048
39561,53094
39575,53108
39588,53133
39577,53140
39583,53146
39589,53180
39585,53190
39592,53214
39598,53229
39618,53272
39628,53269
39618,53299
39614,53314
39622,53319
39615,53306
39622,53303
39628,53290
39606,53274
39597,53258
39605,53242
39597,53233
39603,53227
39590,53211
39588,53212
39584,53200
39594,53216
39591,53220
39613,53236
39605,53229
39607,53255
39608,53261
39599,53273
39616,53295
39619,53308
39622,53309
39634,53321
39635,53349
39639,53363
39637,53363
39639,53390
39642,53390
39649,53398
39640,53410
39648,53425
39652,53431
39644,53446
39656,53436
39657,53454
39670,53471
39652,53473
39658,53474
39681,53484
39650,53490
39670,53500
39676,53513
39681,53527
39678,53515
39677,53521
39661,53547
39673,53552
39686,53558
39690,53541
39683,53557
39680,53554
39693,53589
39683,53586
39696,53572
39679,53589
39703,53609
39674,53603
39682,53600
39685,53612
39698,53606
39694,53616
39691,53634
39683,53632
39695,53637
39705,53649
39704,53638
39695,53650
39695,53668
39714,53666
39704,53678
39703,53696
39714,53693
39719,53701
39717,53718
39723,53699
39703,53669
39686,53599
39662,53510
39625,53391
39597,53239
39545,53114
39526,52999
39499,52945
39507,52901
39490,52861
39492,52858
39491,52865
39507,52864
39511,52872
39511,52895
39532,52927
39544,52953
39533,52990
39565,53028
39560,53050
39570,53063
39560,53086
39560,53093
39562,53106
39577,53130
39585,53121
39586,53156
39592,53170
39606,53199
39611,53228
39612,53247
39611,53268
39619,53262
39622,53265
39614,53267
39607,53268
39621,53245
39599,53228
39605,53223
39599,53211
39590,53203
39598,53186
39585,53198
39595,53192
39597,53192
39603,53203
39590,53211
39601,53216
39614,53224
39599,53244
39612,53259
39631,53273
39610,53289
39626,53294
39627,53299
39631,53318
39606,53334
39633,53335
39640,53363
39641,53382
39644,53390
39636,53388
39647,53418
39635,53416
39652,53427
39654,53439
39650,53428
39665,53451
39656,53468
39663,53484
39660,53483
39662,53482
39670,53489
39669,53495
39669,53493
39663,53521
39680,53520
39677,53533
39684,53536
39666,53524
39686,53551
39685,53559
39686,53566
39674,53573
39685,53581
39690,53577
39683,53592
39687,53599
39681,53593
39690,53594
39696,53614
39696,53617
39690,53638
39698,53621
39699,53624
39691,53637
39703,53649
39694,53628
39714,53657
39708,53655
39697,53657
39706,53674
39705,53683
39709,53697
39707,53690
39701,53698
39695,53712
39713,53710
39712,53723
39705,53728
39711,53736
39697,53729
39702,53715
39707,53693
39680,53622
39663,53529
39611,53372
39579,53220
39541,53106
39511,52997
39516,52893
39499,52872
39492,52859
39489,52840
39501,52837
39512,52873
39510,52893
39516,52913
39528,52926
39537,52983
39579,53005
39535,53025
39557,53048
39548,53068
39555,53080
39558,53130
39576,53091
39579,53102
39582,53116
39587,53160
39584,53174
39605,53205
39610,53240
39604,53248
39618,53251
39601,53256
39611,53249
39605,53251
39609,53228
39604,53219
39555,53206
39511,52997
39578,53181
39593,53185
39580,53177
39571,53176
39579,53174
39586,53188
39588,53193
39581,53196
39581,53212
39592,53217
39602,53231
39600,53248
39605,53262
39620,53285
39624,53274
39614,53303
39616,53314
39622,53314
39629,53336
39622,53363
39629,53365
39647,53380
39648,53384
39631,53395
39641,53401
39643,53425
39654,53420
39651,53429
39651,53439
39658,53444
39661,53453
39652,53457
39668,53479
39642,53477
39670,53488
39655,53493
39681,53495
39665,53492
39666,53509
39669,53540
39674,53540
39670,53545
39666,53549
39668,53535
39684,53548
39691,53549
39675,53568
39671,53550
39689,53573
39676,53588
39675,53590
39695,53598
39677,53586
39676,53613
39685,53597
39674,53623
39684,53626
39674,53620
39689,53619
39686,53632
39687,53624
39688,53640
39701,53652
39681,53668
39688,53665
39697,53672
39694,53689
39695,53678
39705,53701
39712,53691
39718,53711
39693,53706
39700,53678
39688,53665
39678,53607
39647,53508
39614,53389
39574,53233
39537,53122
39531,53027
39509,52952
39499,52933
39500,52891
39497,52878
39499,52891
39506,52922
39526,52929
39531,52963
39522,53002
39549,53008
39557,53058
39551,53099
39570,53116
39577,53139
39576,53146
39580,53162
39578,53180
39586,53198
39597,53214
39600,53238
39610,53266
39608,53287
39623,53321
39630,53319
39625,53336
39621,53315
39641,53322
39618,53316
39604,53303
39602,53289
39585,53265
39596,53257
39584,53240
39597,53227
39606,53214
39588,53235
39598,53211
39603,53234
39589,53235
39594,53245
39606,53261
39601,53274
39591,53276
39615,53295
39618,53319
39627,53326
39619,53341
39646,53335
39634,53363
39648,53382
39627,53374
39645,53401
39649,53407
39654,53417
39640,53422
39650,53445
39655,53443
39659,53461
39641,53464
39659,53501
39651,53481
39658,53505
39664,53492
39659,53498
39668,53514
39667,53527
39671,53532
39674,53540
39676,53537
39664,53554
39674,53548
39670,53567
39660,53559
39680,53564
39693,53577
39660,53577
39694,53594
39684,53592
39677,53602
39688,53616
39694,53603
39679,53619
39691,53626
39667,53615
39686,53636
39693,53642
39687,53656
39701,53647
39705,53657
39708,53640
39700,53654
39688,53672
39699,53675
39694,53704
39704,53713
39711,53711
39696,53712
39703,53703
39707,53705
39681,53658
39669,53570
39641,53469
39607,53346
39556,53186
39551,53078
39512,52986
39498,52913
39475,52874
39488,52850
39488,52842
39477,52849
39494,52875
39508,52878
39502,52922
39523,52933
39526,52964
39536,53000
39546,53003
39539,53039
39544,53033
39563,53070
39551,53084
39553,53095
39574,53100
39563,53135
39557,53134
39592,53146
39582,53175
39600,53200
39603,53215
39588,53256
39599,53241
39602,53231
39596,53256
39595,53230
39584,53229
39579,53220
39578,53199
39573,53208
39582,53177
39571,53176
39580,53165
39576,53180
39579,53149
39568,53176
39578,53190
39567,53189
39586,53199
39588,53212
39610,53240
39612,53248
39607,53246
39609,53270
39605,53271
39621,53283
39608,53314
39613,53334
39620,53355
39631,53351
39627,53328
39645,53356
39629,53373
39634,53394
39639,53391
39639,53436
39626,53415
39642,53435
39652,53432
39652,53455
39663,53464
39664,53471
39628,53482
39654,53479
39630,53490
39664,53504
39664,53507
39657,53509
39663,53520
39669,53509
39678,53523
39660,53524
39678,53546
39671,53541
39671,53568
39667,53554
39677,53569
39678,53570
39678,53574
39668,53590
39668,53588
39671,53595
39683,53593
39680,53599
39668,53611
39690,53616
39680,53617
39684,53630
39698,53629
39685,53640
39683,53641
39699,53642
39688,53656
39675,53652
39706,53681
39697,53681
39681,53689
39688,53701
39698,53727
39672,53698
39690,53666
39682,53620
39657,53530
39611,53413
39591,53264
39543,53115
39510,53026
39512,52930
39484,52868
39469,52852
39488,52826
39487,52829
39496,52849
39485,52864
39499,52888
39511,52907
39523,52919
39520,52953
39529,52982
39534,53005
39533,53038
39545,53041
39540,53063
39553,53061
39554,53082
39558,53100
39562,53111
39564,53141
39573,53156
39587,53195
39588,53209
39604,53220
39602,53225
39587,53233
39588,53216
39576,53215
39583,53200
39592,53203
39570,53186
39564,53173
39570,53146
39573,53155
39565,53129
39555,53129
39570,53151
39571,53153
39574,53146
39588,53162
39585,53187
39574,53190
39587,53199
39586,53212
39590,53229
39581,53250
39604,53262
39613,53271
39605,53274
39598,53298
39612,53293
39618,53307
39619,53333
39621,53330
39612,53351
39617,53349
39630,53370
39616,53383
39621,53382
39638,53402
39636,53396
39620,53406
39645,53426
39635,53410
39652,53443
39637,53451
39637,53450
39634,53462
39651,53462
39640,53485
39650,53483
39649,53497
39660,53489
39659,53502
39652,53506
39662,53510
39657,53515
39656,53520
39644,53516
39665,53529
39665,53546
39660,53537
39665,53542
39676,53542
39669,53534
39661,53567
39671,53570
39655,53566
39671,53580
39666,53580
39670,53589
39667,53584
39684,53606
39691,53616
39686,53606
39669,53620
39678,53639
39698,53640
39687,53640
39698,53665
39698,53666
39682,53661
39686,53643
39667,53604
39637,53525
39604,53403
39586,53255
39534,53106
39513,53002
39487,52923
39479,52889
39485,52823
39480,52833
39477,52825
39487,52839
39500,52860
39483,52894
39516,52908
39526,52944
39520,52976
39534,53000
39541,53041
39557,53048
39549,53072
39548,53096
39569,53104
39578,53126
39561,53142
39582,53170
39603,53187
39584,53223
39612,53224
39608,53266
39589,53268
39600,53284
39607,53276
39599,53267
39586,53250
39590,53235
39594,53228
39592,53204
39579,53186
39567,53177
39570,53173
39577,53165
39568,53167
39582,53168
39575,53175
39574,53198
39582,53191
39581,53214
39596,53223
39589,53233
39601,53245
39605,53256
39609,53299
39622,53304
39599,53310
39620,53315
39624,53307
39633,53347
39617,53358
39624,53366
39618,53367
39646,53386
39643,53393
39633,53400
39645,53413
39635,53418
39649,53441
39652,53443
39639,53443
39660,53468
39644,53450
39656,53469
39660,53470
39676,53463
39660,53495
39645,53485
39660,53510
39661,53514
39655,53513
39671,53523
39673,53541
39675,53528
39669,53550
39700,53558
39678,53559
39663,53567
39674,53576
39675,53585
39676,53611
39659,53585
39682,53561
39684,53566
39682,53609
39686,53593
39670,53612
39671,53630
39692,53608
39670,53625
39692,53657
39688,53651
39709,53653
39725,53667
39695,53679
39682,53671
39660,53470
39693,53684
39689,53673
39682,53639
39672,53591
39642,53479
39607,53352
39559,53207
39529,53059
39489,52961
39498,52885
39475,52816
39475,52786
39485,52768
39460,52786
39470,52770
39468,52810
39473,52826
39507,52846
39501,52876
39491,52884
39493,52921
39512,52937
39520,52954
39524,52973
39525,52989
39530,52990
39534,52988
39539,53005
39546,53031
39544,53059
39554,53068
39552,53105
39576,53123
39576,53153
39580,53147
39568,53166
39582,53173
39572,53145
39572,53148
39558,53140
39567,53128
39547,53111
39541,53098
39554,53087
39544,53077
39539,53087
39548,53085
39554,53091
39567,53095
39572,53116
39567,53105
39563,53129
39568,53144
39576,53148
39574,53164
39587,53175
39593,53177
39577,53218
39588,53213
39581,53226
39588,53249
39599,53256
39595,53252
39609,53273
39604,53300
39607,53287
39610,53309
39605,53322
39610,53315
39631,53351
39622,53348
39632,53365
39627,53370
39627,53384
39631,53387
39625,53405
39627,53404
39641,53425
39643,53421
39636,53421
39635,53432
39652,53442
39635,53453
39663,53447
39649,53460
39645,53480
39654,53485
39651,53475
39652,53507
39657,53495
39668,53519
39652,53516
39652,53514
39661,53545
39666,53519
39663,53542
39665,53532
39675,53551
39672,53550
39661,53558
39675,53547
39675,53562
39660,53567
39667,53574
39666,53597
39671,53583
39677,53598
39662,53618
39665,53622
39685,53619
39680,53637
39673,53641
39676,53654
39685,53655
39676,53655
39682,53654
39676,53619
39674,53580
39644,53512
39610,53376
39572,53247
39528,53101
39487,52987
39477,52896
39469,52817
39470,52787
39455,52762
39458,52772
39466,52783
39470,52800
39488,52832
39497,52855
39507,52864
39513,52920
39507,52921
39526,52945
39517,52978
39542,52993
39529,53009
39536,53008
39542,53018
39539,53030
39533,53070
39554,53088
39566,53115
39555,53148
39575,53148
39580,53184
39576,53199
39578,53185
39583,53198
39578,53186
39571,53176
39573,53153
39560,53145
39567,53124
39560,53110
39559,53107
39542,53107
39544,53090
39559,53095
39559,53111
39565,53113
39564,53116
39559,53126
39570,53147
39574,53145
39584,53172
39569,53189
39574,53187
39591,53206
39586,53225
39577,53226
39583,53226
39589,53257
39601,53251
39616,53276
39603,53281
39608,53318
39612,53304
39611,53316
39615,53323
39608,53328
39614,53357
39628,53356
39634,53353
39623,53353
39640,53389
39632,53386
39633,53394
39640,53392
39634,53415
39643,53414
39635,53426
39643,53429
39633,53427
39654,53441
39639,53429
39640,53461
39664,53469
39660,53472
39650,53482
39649,53481
39655,53475
39655,53487
39635,53494
39645,53497
39672,53513
39654,53507
39645,53512
39666,53525
39656,53532
39652,53535
39678,53548
39666,53562
39673,53547
39670,53557
39674,53578
39666,53575
39669,53570
39678,53584
39676,53607
39668,53625
39669,53599
39683,53616
39679,53611
39671,53594
39671,53564
39654,53494
39609,53395
39577,53252
39542,53106
39495,52988
39474,52895
39465,52855
39471,52823
39470,52811
39478,52795
39480,52766
39490,52815
39480,52857
39510,52882
39520,52934
39517,52958
39544,52992
39545,52996
39557,53020
39561,53026
39577,53059
39561,53057
39552,53086
39548,53112
39582,53124
39566,53153
39585,53173
39586,53209
39589,53232
39585,53217
39592,53221
39600,53211
39595,53208
39576,53188
39581,53164
39583,53157
39552,53133
39569,53132
39558,53117
39570,53095
39567,53107
39558,53139
39581,53127
39561,53142
39553,53147
39581,53156
39570,53180
39576,53178
39588,53194
39595,53197
39594,53231
39590,53241
39590,53249
39603,53267
39596,53283
39609,53286
39616,53303
39613,53311
39613,53318
39611,53338
39618,53344
39633,53352
39616,53357
39615,53365
39621,53381
39644,53389
39640,53400
39636,53409
39640,53399
39646,53418
39637,53424
39648,53424
39646,53445
39653,53459
39656,53448
39664,53476
39651,53472
39653,53476
39657,53471
39667,53483
39667,53507
39666,53503
39668,53502
39650,53518
39662,53523
39665,53534
39675,53545
39677,53546
39675,53557
39665,53555
39676,53560
39676,53559
39692,53570
39686,53568
39669,53578
39678,53592
39668,53593
39679,53604
39707,53607
39682,53619
39689,53624
39704,53642
39683,53637
39678,53648
39676,53629
39671,53588
39663,53538
39637,53414
39600,53285
39541,53117
39519,53002
39501,52903
39471,52854
39462,52787
39463,52758
39467,52739
39453,52747
39486,52764
39483,52777
39488,52784
39497,52825
39495,52845
39498,52864
39496,52903
39518,52907
39515,52930
39503,52943
39546,52954
39539,52954
39537,52986
39541,52983
39545,53005
39538,53025
39574,53047
39559,53074
39565,53109
39560,53117
39573,53128
39574,53142
39572,53148
39572,53128
39569,53114
39559,53094
39565,53101
39554,53085
39566,53060
39543,53062
39556,53054
39562,53063
39560,53062
39564,53066
39560,53077
39570,53079
39560,53099
39563,53120
39571,53107
39578,53140
39580,53138
39587,53147
39593,53169
39587,53183
39588,53191
39597,53189
39605,53236
39594,53223
39605,53265
39604,53261
39605,53283
39606,53280
39620,53293
39604,53295
39611,53316
39620,53325
39627,53333
39630,53347
39629,53346
39632,53371
39630,53375
39627,53377
39630,53370
39643,53384
39634,53405
39627,53416
39639,53415
39651,53414
39656,53433
39635,53417
39650,53445
39656,53440
39660,53455
39647,53454
39662,53476
39664,53459
39659,53453
39665,53484
39653,53481
39664,53503
39659,53486
39657,53499
39670,53515
39682,53522
39666,53530
39672,53521
39668,53528
39658,53541
39673,53545
39683,53557
39678,53553
39671,53542
39660,53573
39676,53579
39687,53585
39684,53620
39702,53606
39682,53610
39700,53620
39700,53626
39686,53617
39693,53625
39686,53623
39686,53591
39664,53514
39629,53418
39596,53294
39558,53138
39531,53008
39515,52912
39496,52854
39483,52794
39491,52775
39461,52762
39465,52766
39481,52775
39486,52806
39502,52823
39510,52853
39519,52891
39531,52897
39539,52936
39535,52969
39539,53004
39550,53007
39548,53016
39556,53031
39558,53036
39556,53063
39559,53065
39577,53092
39583,53113
39580,53137
39589,53153
39611,53164
39599,53187
39600,53165
39582,53159
39585,53145
39582,53150
39585,53152
39575,53116
39553,53125
39568,53036
39548,53045
39559,53060
39563,53070
39550,53081
39576,53090
39581,53105
39568,53124
39588,53128
39585,53150
39605,53152
39624,53177
39599,53195
39577,53199
39603,53210
39582,53215
39592,53232
39617,53248
39594,53276
39620,53276
39622,53291
39619,53288
39624,53301
39634,53297
39632,53322
39635,53325
39626,53334
39633,53341
39633,53355
39631,53368
39630,53358
39645,53369
39651,53384
39641,53396
39639,53408
39643,53409
39658,53415
39646,53423
39652,53425
39654,53434
39659,53428
39654,53444
39654,53450
39643,53453
39660,53465
39654,53459
39660,53481
39673,53484
39663,53487
39689,53484
39661,53494
39659,53496
39669,53500
39662,53500
39664,53520
39673,53528
39675,53532
39677,53529
39683,53552
39678,53549
39683,53567
39701,53557
39693,53572
39682,53580
39684,53591
39691,53588
39680,53605
39697,53611
39689,53620
39702,53610
39689,53624
39679,53598
39685,53543
39656,53475
39612,53358
39586,53230
39544,53065
39504,52965
39501,52889
39499,52815
39506,52804
39483,52763
39492,52783
39491,52798
39483,52822
39516,52828
39511,52863
39520,52894
39526,52929
39546,52961
39536,52973
39551,52990
39551,53015
39565,53027
39560,53042
39570,53072
39578,53082
39593,53114
39596,53131
39605,53159
39587,53174
39599,53206
39607,53204
39605,53218
39610,53206
39591,53202
39604,53198
39593,53198
39573,53162
39575,53149
39573,53123
39575,53108
39578,53110
39587,53106
39585,53116
39570,53119
39572,53131
39581,53125
39605,53138
39594,53168
39602,53180
39602,53183
39610,53201
39614,53216
39623,53222
39607,53225
39619,53254
39626,53255
39618,53280
39621,53286
39634,53286
39636,53320
39635,53315
39624,53330
39642,53339
39625,53343
39650,53349
39632,53375
39633,53392
39667,53379
39628,53395
39660,53407
39650,53413
39668,53414
39664,53417
39669,53435
39659,53438
39663,53450
39657,53436
39666,53460
39664,53482
39690,53485
39677,53484
39684,53483
39680,53495
39685,53500
39684,53523
39691,53515
39680,53526
39675,53534
39676,53542
39686,53535
39672,53550
39692,53536
39701,53563
39680,53562
39692,53569
39683,53567
39671,53594
39703,53580
39697,53595
39701,53605
39703,53602
39716,53608
39698,53623
39698,53621
39708,53620
39704,53650
39710,53650
39710,53651
39723,53666
39706,53642
39696,53627
39685,53568
39667,53459
39627,53328
39580,53189
39541,53033
39528,52958
39499,52863
39494,52823
39503,52782
39482,52781
39502,52763
39493,52768
39508,52796
39509,52838
39506,52844
39523,52864
39537,52893
39532,52913
39540,52952
39544,52968
39559,52965
39552,52979
39562,52996
39572,53001
39560,53021
39581,53049
39579,53071
39586,53094
39592,53111
39582,53126
39600,53147
39600,53174
39601,53167
39614,53166
39602,53163
39579,53161
39597,53141
39592,53137
39577,53114
39577,53085
39570,53093
39576,53100
39586,53107
39571,53094
39580,53098
39578,53114
39596,53114
39597,53142
39584,53147
39591,53163
39590,53164
39616,53166
39617,53199
39606,53207
39611,53234
39616,53244
39615,53252
39641,53259
39619,53265
39627,53278
39626,53290
39641,53308
39615,53330
39643,53348
39647,53370
39651,53396
39663,53344
39654,53372
39656,53389
39669,53390
39654,53417
39661,53416
39659,53433
39666,53434
39671,53444
39676,53447
39674,53463
39676,53481
39663,53468
39651,53474
39670,53475
39682,53475
39692,53493
39688,53498
39696,53515
39697,53526
39684,53523
39691,53534
39698,53548
39691,53552
39697,53553
39692,53556
39702,53570
39702,53560
39705,53572
39685,53576
39719,53584
39705,53599
39695,53586
39707,53601
39707,53600
39703,53619
39702,53634
39699,53634
39712,53649
39704,53644
39723,53651
39726,53654
39735,53658
39729,53665
39720,53699
39721,53669
39709,53673
39704,53621
39676,53545
39657,53435
39618,53297
39574,53146
39545,53018
39513,52945
39510,52885
39508,52858
39514,52817
39508,52820
39520,52840
39520,52849
39531,52889
39539,52914
39555,52947
39556,52969
39567,52996
39575,53018
39583,53051
39577,53054
39575,53066
39585,53094
39596,53093
39600,53128
39608,53125
39613,53151
39620,53185
39619,53209
39624,53232
39640,53247
39619,53254
39625,53268
39617,53269
39618,53249
39620,53236
39625,53225
39610,53200
39610,53199
39599,53174
39602,53166
39601,53164
39600,53141
39604,53166
39604,53168
39614,53189
39596,53182
39608,53204
39600,53216
39632,53228
39611,53233
39618,53244
39625,53262
39640,53282
39639,53283
39639,53299
39623,53300
39638,53331
39643,53342
39640,53346
39645,53364
39670,53354
39661,53363
39659,53381
39654,53389
39657,53413
39667,53404
39646,53408
39670,53445
39661,53427
39663,53448
39662,53453
39657,53466
39672,53474
39672,53464
39680,53473
39678,53474
39676,53489
39682,53506
39686,53503
39688,53509
39687,53521
39685,53536
39694,53518
39701,53529
39686,53550
39714,53547
39690,53553
39700,53549
39692,53564
39695,53579
39702,53574
39700,53570
39697,53584
39719,53577
39705,53589
39709,53591
39712,53596
39705,53615
39727,53613
39721,53614
39704,53620
39719,53631
39726,53664
39726,53655
39715,53653
39720,53665
39729,53677
39735,53682
39701,53628
39706,53596
39673,53508
39654,53386
39594,53244
39578,53112
39534,53037
39515,52943
39523,52881
39519,52885
39523,52856
39514,52861
39525,52870
39535,52895
39545,52930
39547,52943
39555,52983
39561,53016
39589,53042
39574,53048
39583,53084
39595,53100
39587,53135
39602,53129
39610,53160
39622,53181
39628,53198
39630,53217
39632,53241
39654,53270
39664,53280
39649,53303
39654,53309
39640,53288
39638,53294
39628,53281
39630,53258
39616,53247
39618,53231
39617,53222
39618,53217
39611,53208
39605,53211
39620,53213
39609,53198
39622,53228
39631,53238
39627,53232
39635,53241
39635,53262
39628,53272
39637,53298
39640,53317
39637,53306
39654,53327
39660,53362
39656,53348
39656,53371
39657,53362
39657,53383
39674,53402
39666,53422
39672,53407
39698,53437
39669,53443
39688,53445
39680,53440
39673,53468
39675,53468
39686,53472
39685,53489
39685,53479
39698,53512
39693,53500
39707,53520
39695,53489
39717,53542
39685,53542
39692,53551
39693,53549
39721,53569
39704,53546
39704,53582
39708,53574
39718,53592
39731,53602
39709,53591
39714,53589
39727,53602
39714,53611
39702,53641
39714,53627
39722,53598
39728,53608
39730,53647
39717,53639
39705,53644
39749,53655
39729,53665
39731,53682
39734,53696
39742,53689
39747,53697
39762,53699
39737,53718
39707,53729
39710,53715
39711,53696
39718,53668
39700,53585
39678,53499
39628,53360
39578,53197
39549,53076
39538,52980
39533,52926
39522,52879
39512,52856
39534,52842
39526,52854
39528,52858
39535,52880
39555,52908
39547,52941
39565,52962
39550,52972
39558,52998
39575,53031
39582,53040
39585,53044
39580,53072
39577,53081
39584,53096
39590,53099
39604,53119
39604,53136
39604,53174
39626,53205
39620,53204
39633,53215
39632,53236
39639,53251
39625,53238
39630,53244
39622,53213
39619,53199
39617,53188
39619,53191
39595,53162
39601,53160
39602,53167
39603,53164
39601,53161
39614,53175
39604,53175
39618,53182
39617,53221
39613,53212
39629,53212
39647,53241
39636,53255
39637,53258
39648,53268
39642,53288
39655,53303
39649,53302
39642,53326
39652,53331
39650,53344
39655,53349
39656,53369
39658,53367
39658,53379
39652,53396
39669,53401
39673,53412
39677,53419
39661,53438
39680,53435
39675,53439
39694,53472
39682,53459
39690,53480
39680,53471
39685,53487
39685,53476
39694,53496
39692,53495
39687,53483
39693,53514
39695,53506
39691,53540
39691,53525
39700,53530
39710,53549
39702,53544
39707,53541
39708,53558
39719,53565
39699,53573
39721,53588
39702,53569
39712,53586
39700,53589
39718,53586
39713,53599
39714,53616
39719,53590
39705,53608
39727,53628
39715,53626
39727,53630
39729,53639
39725,53655
39720,53654
39726,53665
39718,53667
39725,53675
39729,53673
39733,53666
39714,53629
39692,53564
39658,53450
39615,53314
39582,53167
39550,53048
39535,52939
39515,52861
39479,52795
39493,52784
39492,52782
39489,52783
39501,52816
39518,52814
39513,52836
39522,52881
39540,52894
39536,52932
39552,52946
39573,52983
39565,52990
39558,53003
39561,53012
39586,53030
39578,53043
39557,53065
39581,53073
39603,53106
39591,53151
39597,53168
39593,53180
39611,53191
39618,53205
39596,53180
39602,53188
39599,53158
39596,53157
39599,53126
39586,53112
39568,53078
39558,53080
39570,53059
39574,53047
39564,53044
39577,53064
39578,53065
39577,53063
39573,53097
39584,53114
39593,53125
39588,53138
39593,53138
39586,53148
39598,53172
39599,53185
39607,53188
39613,53186
39623,53209
39613,53226
39620,53230
39624,53244
39632,53247
39633,53270
39628,53272
39631,53268
39621,53290
39628,53306
39632,53326
39630,53330
39640,53317
39633,53342
39650,53344
39630,53351
39647,53378
39655,53363
39645,53379
39650,53384
39665,53402
39656,53398
39656,53390
39657,53416
39667,53421
39658,53422
39660,53426
39664,53432
39675,53450
39663,53436
39678,53450
39658,53445
39669,53454
39675,53451
39658,53483
39684,53476
39666,53480
39669,53490
39675,53483
39689,53494
39676,53508
39691,53495
39680,53521
39693,53550
39688,53528
39702,53533
39705,53549
39691,53546
39695,53554
39696,53549
39699,53534
39673,53483
39641,53409
39616,53294
39562,53123
39523,52975
39505,52866
39475,52748
39443,52688
39459,52662
39455,52633
39430,52640
39454,52615
39443,52626
39445,52641
39460,52657
39457,52706
39472,52721
39462,52749
39479,52766
39494,52789
39508,52810
39508,52816
39527,52836
39502,52838
39477,52865
39495,52895
39524,52923
39537,52946
39538,52966
39546,52996
39539,52999
39553,53007
39537,52982
39533,52983
39532,52962
39520,52940
39519,52915
39499,52894
39506,52862
39505,52880
39506,52865
39520,52871
39505,52870
39492,52868
39505,52893
39522,52900
39520,52901
39520,52915
39527,52919
39533,52945
39528,52961
39538,52953
39524,53003
39550,52985
39540,53022
39553,53037
39558,53044
39549,53049
39569,53062
39556,53075
39563,53085
39567,53101
39572,53109
39572,53117
39577,53135
39578,53152
39589,53144
39578,53169
39596,53167
39588,53168
39594,53193
39590,53189
39596,53207
39595,53207
39598,53225
39596,53251
39594,53242
39591,53241
39614,53245
39592,53254
39604,53260
39613,53281
39626,53282
39619,53279
39619,53302
39620,53280
39607,53301
39608,53318
39617,53314
39614,53320
39643,53332
39621,53333
39643,53343
39641,53354
39627,53345
39621,53367
39622,53353
39629,53383
39637,53390
39643,53383
39631,53383
39627,53393
39640,53404
39641,53402
39643,53442
39655,53422
39649,53446
39645,53440
39650,53440
39637,53424
39623,53368
39607,53251
39537,53090
39495,52912
39461,52763
39417,52618
39395,52543
39374,52475
39374,52440
39359,52402
39352,52401
39370,52399
39360,52413
39376,52416
39362,52436
39373,52445
39377,52483
39391,52512
39399,52525
39405,52521
39400,52539
39405,52547
39403,52561
39408,52581
39401,52590
39416,52596
39419,52602
39423,52643
39440,52655
39455,52675
39440,52697
39451,52712
39446,52719
39458,52721
39454,52717
39434,52691
39445,52675
39433,52677
39440,52652
39424,52626
39420,52627
39435,52602
39443,52617
39422,52605
39429,52609
39417,52632
39438,52633
39445,52637
39435,52681
39449,52674
39423,52693
39437,52711
39445,52702
39450,52717
39465,52729
39459,52748
39446,52772
39490,52779
39465,52791
39478,52805
39475,52815
39479,52828
39482,52849
39491,52854
39491,52863
39498,52889
39488,52880
39505,52892
39514,52910
39502,52924
39498,52934
39499,52948
39513,52940
39504,52956
39507,52975
39511,52973
39520,52990
39521,52994
39519,53012
39516,53009
39531,53023
39530,53050
39529,53037
39525,53043
39543,53062
39538,53075
39532,53085
39543,53068
39547,53085
39543,53098
39533,53088
39550,53114
39544,53113
39566,53125
39549,53130
39557,53131
39561,53137
39559,53144
39560,53154
39563,53175
39559,53157
39562,53182
39562,53173
39568,53192
39566,53192
39575,53206
39574,53230
39565,53230
39563,53240
39580,53235
39573,53259
39581,53254
39575,53262
39596,53266
39594,53280
39575,53286
39597,53300
39583,53314
39601,53292
39571,53270
39562,53209
39522,53096
39480,52910
39434,52741
39384,52604
39357,52479
39339,52390
39333,52363
39326,52316
39314,52307
39316,52285
39323,52312
39309,52282
39323,52331
39343,52348
39335,52383
39364,52395
39346,52423
39354,52446
39358,52465
39374,52487
39376,52504
39391,52491
39386,52524
39387,52529
39380,52582
39398,52609
39403,52628
39416,52633
39419,52650
39413,52664
39407,52663
39407,52654
39400,52633
39403,52595
39401,52592
39413,52577
39399,52548
39404,52532
39396,52539
39357,52529
39373,52522
39363,52539
39369,52537
39377,52529
39378,52563
39402,52564
39393,52594
39397,52595
39404,52615
39413,52625
39416,52621
39413,52643
39422,52670
39440,52678
39415,52692
39431,52732
39436,52725
39436,52743
39437,52738
39426,52756
39429,52759
39457,52785
39467,52780
39454,52786
39447,52798
39455,52802
39466,52830
39469,52837
39461,52853
39469,52846
39466,52884
39480,52866
39482,52889
39487,52908
39483,52898
39510,52918
39477,52925
39504,52924
39489,52940
39502,52961
39491,52951
39494,52968
39504,52984
39511,52981
39497,52989
39508,52996
39521,53010
39506,53016
39516,53038
39518,53033
39514,53045
39518,53045
39528,53039
39522,53054
39528,53084
39526,53078
39529,53079
39518,53088
39544,53092
39532,53085
39529,53124
39532,53142
39532,53123
39524,53123
39541,53141
39529,53167
39554,53172
39538,53185
39537,53195
39568,53189
39569,53199
39549,53209
39556,53223
39549,53225
39547,53171
39525,53117
39497,52998
39430,52808
39394,52677
39343,52491
39310,52371
39299,52294
39296,52239
39276,52186
39278,52180
39255,52187
39265,52172
39283,52179
39299,52210
39275,52230
39290,52255
39313,52264
39303,52297
39327,52293
39314,52314
39328,52338
39339,52364
39321,52360
39320,52375
39338,52401
39347,52410
39342,52426
39356,52448
39370,52473
39379,52511
39376,52520
39378,52529
39384,52542
39361,52531
39370,52507
39359,52493
39368,52478
39356,52461
39343,52434
39336,52425
39353,52413
39346,52415
39362,52412
39340,52410
39343,52441
39360,52446
39357,52434
39351,52473
39362,52472
39377,52488
39386,52496
39375,52513
39376,52528
39388,52553
39382,52543
39392,52565
39403,52596
39397,52606
39409,52604
39404,52640
39410,52655
39404,52667
39417,52680
39426,52700
39426,52708
39430,52714
39419,52734
39428,52725
39444,52756
39432,52743
39444,52763
39438,52768
39441,52774
39445,52778
39455,52812
39450,52822
39461,52824
39456,52833
39479,52851
39462,52863
39474,52865
39470,52870
39476,52891
39485,52890
39478,52904
39493,52911
39487,52919
39486,52929
39485,52924
39495,52938
39477,52960
39495,52946
39493,52955
39501,52974
39494,52976
39500,53002
39500,53011
39511,53013
39508,53004
39503,53015
39503,53021
39514,53045
39514,53037
39504,53050
39518,53063
39520,53071
39521,53092
39513,53097
39517,53101
39527,53126
39533,53123
39532,53133
39540,53131
39517,53121
39505,53028
39476,52927
39418,52752
39370,52582
39322,52411
39296,52296
39276,52205
39266,52157
39265,52115
39260,52095
39240,52067
39260,52093
39249,52095
39243,52102
39270,52114
39265,52142
39276,52166
39283,52173
39269,52196
39294,52203
39289,52246
39309,52251
39314,52260
39301,52269
39316,52267
39308,52311
39316,52297
39329,52309
39345,52350
39336,52379
39328,52416
39343,52423
39342,52411
39360,52410
39341,52413
39348,52381
39344,52365
39361,52358
39335,52344
39334,52333
39324,52323
39322,52323
39316,52334
39339,52348
39334,52336
39338,52323
39334,52374
39327,52358
39337,52374
39347,52404
39360,52420
39370,52419
39356,52432
39385,52451
39399,52492
39399,52484
39384,52502
39362,52508
39316,52297
39384,52551
39398,52563
39399,52577
39400,52575
39408,52611
39425,52619
39413,52605
39419,52628
39419,52657
39423,52667
39420,52665
39432,52686
39434,52696
39440,52714
39453,52722
39443,52732
39427,52745
39438,52743
39445,52754
39451,52780
39460,52791
39460,52792
39472,52793
39462,52808
39472,52805
39470,52841
39469,52816
39468,52847
39465,52844
39478,52849
39476,52876
39469,52874
39482,52876
39494,52886
39482,52920
39477,52907
39500,52904
39494,52923
39495,52923
39494,52928
39511,52935
39509,52939
39494,52950
39508,52968
39508,52967
39509,52991
39506,53018
39507,53021
39534,53014
39532,53036
39521,53039
39522,53048
39534,53047
39518,53022
39502,52949
39460,52840
39419,52704
39377,52525
39342,52376
39305,52256
39284,52174
39263,52119
39265,52095
39261,52080
39264,52066
39278,52081
39271,52077
39279,52100
39276,52137
39285,52162
39306,52196
39292,52218
39325,52242
39327,52247
39331,52276
39336,52295
39330,52302
39337,52322
39338,52338
39352,52358
39352,52388
39381,52416
39382,52452
39386,52472
39383,52484
39377,52473
39393,52485
39387,52489
39377,52450
39376,52430
39375,52409
39365,52377
39364,52362
39354,52349
39350,52341
39356,52357
39355,52366
39367,52368
39379,52396
39368,52395
39374,52403
39377,52418
39388,52450
39392,52457
39397,52460
39397,52482
39411,52498
39389,52526
39415,52533
39414,52560
39412,52559
39421,52566
39430,52592
39424,52609
39429,52626
39440,52621
39441,52643
39444,52656
39445,52674
39456,52672
39467,52684
39468,52701
39462,52712
39468,52727
39466,52731
39467,52746
39467,52753
39490,52765
39476,52769
39483,52791
39493,52796
39498,52809
39482,52812
39495,52823
39504,52832
39512,52855
39507,52864
39495,52866
39498,52879
39515,52876
39522,52894
39520,52902
39521,52917
39512,52923
39525,52944
39527,52934
39534,52931
39524,52951
39527,52972
39545,52981
39551,52987
39529,52980
39533,52979
39537,53003
39542,52997
39556,53030
39548,53040
39550,53046
39564,53044
39562,53070
39567,53059
39577,53075
39569,53078
39563,53074
39564,53050
39554,52986
39504,52892
39454,52737
39406,52547
39370,52402
39332,52264
39320,52176
39297,52120
39291,52080
39291,52061
39300,52055
39301,52059
39311,52066
39294,52079
39307,52104
39320,52123
39328,52147
39325,52172
39341,52189
39348,52202
39348,52223
39351,52231
39360,52255
39362,52254
39359,52269
39369,52280
39384,52310
39377,52329
39386,52355
39399,52387
39403,52415
39400,52425
39416,52427
39412,52427
39392,52426
39396,52406
39409,52390
39397,52373
39396,52363
39399,52355
39405,52331
39400,52333
39398,52351
39399,52335
39396,52343
39409,52354
39414,52367
39411,52373
39429,52381
39422,52430
39430,52435
39440,52433
39449,52475
39447,52496
39440,52486
39461,52507
39466,52531
39455,52556
39484,52559
39482,52564
39486,52592
39474,52583
39499,52618
39498,52670
39481,52671
39505,52679
39497,52648
39512,52690
39517,52699
39525,52718
39516,52720
39515,52741
39529,52746
39526,52751
39552,52761
39553,52777
39568,52797
39536,52795
39515,52786
39411,52373
39535,52836
39540,52839
39555,52847
39566,52856
39565,52847
39560,52861
39573,52863
39569,52900
39566,52904
39573,52892
39559,52920
39579,52914
39573,52933
39569,52933
39584,52950
39578,52935
39590,52950
39593,52967
39603,52970
39595,52964
39608,53001
39594,52982
39616,52997
39598,53004
39576,53016
39607,53023
39604,53045
39613,53043
39609,53056
39616,53060
39632,53073
39621,53086
39631,53100
39625,53107
39615,53100
39623,53112
39624,53081
39614,53039
39566,52919
39528,52782
39487,52602
39431,52441
39409,52311
39380,52202
39371,52154
39369,52120
39377,52113
39367,52120
39374,52115
39381,52139
39393,52167
39392,52189
39410,52214
39415,52262
39415,52269
39418,52300
39435,52320
39443,52346
39443,52333
39447,52361
39463,52379
39480,52399
39480,52417
39472,52454
39490,52469
39499,52514
39496,52534
39505,52536
39502,52562
39510,52554
39496,52529
39511,52527
39489,52520
39494,52487
39482,52467
39478,52434
39477,52431
39475,52421
39478,52422
39466,52419
39485,52422
39494,52444
39498,52460
39498,52471
39505,52490
39501,52494
39506,52515
39524,52518
39519,52556
39533,52549
39533,52582
39541,52583
39526,52614
39535,52635
39551,52641
39547,52653
39549,52666
39561,52670
39564,52698
39571,52707
39563,52710
39573,52717
39578,52721
39580,52751
39582,52760
39596,52764
39587,52781
39601,52780
39597,52799
39596,52800
39612,52819
39605,52832
39607,52842
39614,52846
39623,52849
39612,52848
39627,52877
39619,52886
39617,52878
39615,52887
39625,52897
39626,52914
39643,52917
39647,52921
39637,52945
39644,52939
39621,52953
39647,52953
39632,52963
39645,52974
39648,52985
39652,52984
39659,52981
39654,52994
39649,53003
39663,53013
39659,53024
39675,53036
39661,53038
39658,53043
39665,53045
39682,53063
39693,53070
39666,53094
39691,53092
39682,53096
39691,53123
39694,53098
39675,53060
39649,52986
39604,52870
39559,52686
39530,52523
39491,52385
39467,52269
39440,52206
39437,52154
39425,52131
39406,52115
39424,52114
39434,52124
39439,52148
39441,52170
39470,52193
39474,52218
39466,52256
39480,52277
39485,52297
39492,52310
39511,52316
39510,52324
39504,52357
39512,52346
39529,52384
39524,52399
39533,52430
39548,52443
39555,52463
39556,52469
39561,52497
39561,52506
39571,52499
39551,52498
39548,52490
39564,52445
39533,52429
39533,52412
39529,52412
39544,52396
39530,52399
39528,52384
39536,52401
39530,52402
39535,52404
39532,52425
39550,52446
39559,52455
39568,52467
39559,52493
39578,52506
39579,52538
39588,52558
39588,52554
39600,52570
39589,52596
39616,52591
39606,52628
39620,52632
39629,52655
39624,52672
39631,52686
39624,52689
39628,52712
39642,52735
39639,52740
39635,52745
39660,52758
39649,52777
39668,52780
39653,52790
39667,52786
39660,52795
39657,52804
39693,52823
39667,52842
39667,52832
39665,52860
39664,52873
39660,52866
39690,52872
39679,52892
39673,52913
39694,52915
39704,52892
39696,52910
39696,52928
39702,52942
39700,52955
39701,52964
39716,52972
39707,52963
39732,52983
39715,52975
39726,52982
39708,52992
39690,53010
39695,53016
39714,53013
39724,53024
39736,53019
39726,53040
39732,53051
39743,53064
39737,53073
39742,53082
39757,53114
39753,53102
39748,53108
39748,53139
39745,53126
39750,53105
39729,53090
39732,52999
39665,52879
39618,52678
39556,52513
39539,52383
39512,52277
39510,52191
39498,52135
39488,52112
39478,52111
39484,52114
39490,52097
39485,52127
39499,52151
39519,52185
39526,52197
39536,52215
39532,52232
39546,52254
39554,52272
39560,52286
39565,52295
39537,52312
39552,52306
39564,52321
39564,52348
39579,52379
39591,52399
39582,52432
39607,52464
39614,52486
39616,52485
39618,52499
39627,52488
39610,52478
39612,52477
39616,52454
39602,52442
39597,52431
39602,52410
39604,52394
39602,52394
39604,52388
39616,52405
39601,52409
39610,52423
39627,52434
39629,52456
39619,52476
39626,52477
39634,52509
39628,52525
39634,52546
39638,52545
39655,52551
39663,52567
39653,52596
39651,52595
39668,52612
39675,52632
39674,52659
39682,52659
39699,52675
39697,52694
39704,52704
39689,52712
39702,52719
39697,52737
39712,52743
39702,52762
39714,52771
39709,52767
39726,52781
39712,52794
39710,52805
39731,52812
39736,52812
39726,52831
39741,52837
39736,52850
39747,52869
39748,52867
39736,52873
39745,52880
39759,52892
39744,52917
39761,52900
39757,52912
39757,52918
39751,52937
39746,52930
39763,52943
39769,52952
39764,52964
39773,52959
39777,52973
39772,52974
39759,52983
39780,52995
39774,53012
39786,53002
39805,53012
39786,53023
39798,53037
39793,53042
39796,53050
39802,53063
39797,53079
39802,53082
39811,53095
39804,53098
39811,53115
39813,53123
39813,53137
39809,53113
39809,53110
39809,53065
39775,52976
39736,52871
39690,52710
39636,52556
39612,52419
39598,52308
39569,52220
39555,52196
39557,52162
39544,52165
39566,52173
39578,52172
39578,52203
39593,52216
39600,52253
39626,52280
39628,52331
39644,52359
39638,52374
39648,52396
39651,52414
39641,52430
39684,52462
39704,52573
39724,52604
39708,52597
39717,52620
39738,52633
39722,52669
39747,52666
39739,52679
39741,52696
39745,52719
39761,52716
39769,52739
39768,52750
39768,52765
39773,52782
39780,52788
39773,52792
39780,52810
39776,52821
39775,52819
39799,52841
39790,52834
39797,52845
39800,52864
39808,52864
39800,52880
39811,52894
39815,52905
39807,52904
39817,52909
39832,52936
39812,52953
39818,52932
39819,52947
39828,52955
39830,52961
39821,52954
39825,52979
39822,52998
39832,53002
39842,53006
39843,53006
39846,53027
39851,53015
39835,53023
39841,53039
39839,53055
39851,53042
39855,53050
39848,53041
39838,53091
39853,53093
39869,53090
39871,53067
39874,53097
39863,53124
39857,53131
39881,53154
39873,53146
39886,53173
39864,53157
39884,53171
39905,53113
39855,53062
39822,52932
39770,52777
39693,52597
39673,52462
39657,52355
39625,52253
39610,52210
39617,52164
39625,52150
39607,52154
39620,52163
39623,52190
39641,52199
39650,52239
39666,52245
39664,52274
39659,52317
39676,52314
39689,52323
39673,52350
39701,52355
39690,52389
39694,52397
39704,52407
39696,52413
39716,52435
39716,52468
39713,52483
39745,52509
39737,52529
39743,52548
39739,52545
39723,52544
39730,52527
39739,52514
39728,52505
39724,52478
39714,52474
39707,52466
39721,52456
39725,52457
39732,52451
39733,52486
39737,52481
39740,52473
39742,52492
39729,52508
39740,52530
39764,52539
39752,52568
39748,52561
39765,52581
39770,52607
39782,52621
39778,52631
39781,52666
39782,52673
39793,52665
39807,52692
39809,52717
39812,52723
39809,52757
39817,52759
39832,52762
39816,52769
39812,52790
39834,52797
39825,52807
39827,52806
39839,52835
39828,52833
39851,52848
39847,52861
39848,52856
39849,52866
39864,52877
39855,52891
39849,52898
39859,52907
39855,52915
39861,52930
39864,52936
39871,52937
39871,52952
39873,52953
39863,52961
39889,52959
39880,52981
39878,52992
39882,52992
39875,52986
39889,53014
39881,53023
39890,53027
39881,53036
39896,53031
39893,53040
39898,53056
39893,53059
39903,53057
39909,53080
39904,53095
39906,53092
39913,53099
39915,53113
39916,53108
39919,53130
39920,53142
39917,53147
39927,53144
39922,53156
39936,53165
39922,53178
39931,53186
39926,53192
39931,53187
39916,53157
39892,53102
39867,52984
39826,52842
39769,52660
39747,52522
39712,52397
39676,52300
39664,52245
39675,52190
39660,52197
39677,52184
39669,52193
39680,52202
39682,52227
39701,52262
39709,52275
39723,52316
39733,52331
39715,52375
39721,52380
39746,52421
39738,52413
39759,52426
39750,52441
39760,52451
39761,52476
39773,52487
39767,52512
39797,52545
39791,52558
39811,52583
39802,52593
39806,52606
39793,52592
39786,52581
39804,52573
39777,52554
39775,52527
39765,52521
39770,52517
39776,52498
39775,52496
39785,52504
39785,52500
39786,52506
39779,52527
39790,52527
39801,52542
39806,52548
39805,52569
39811,52579
39804,52626
39816,52634
39835,52651
39819,52655
39843,52661
39849,52694
39831,52691
39848,52708
39848,52730
39871,52730
39862,52748
39851,52760
39856,52784
39857,52793
39859,52802
39866,52794
39866,52811
39863,52809
39870,52823
39878,52807
39874,52833
39866,52833
39883,52834
39877,52846
39868,52862
39883,52873
39881,52886
39881,52876
39890,52898
39884,52890
39875,52903
39886,52905
39902,52927
39899,52950
39900,52939
39907,52931
39907,52957
39918,52952
39908,52984
39904,52958
39910,52990
39911,52989
39935,53003
39918,52991
39915,53003
39922,53013
39924,53030
39928,53032
39935,53036
39928,53060
39931,53041
39925,53055
39938,53079
39930,53086
39939,53092
39926,53097
39937,53101
39955,53105
39939,53136
39959,53138
39940,53131
39956,53165
39955,53163
39949,53180
39902,52927
39957,53162
39945,53132
39904,53025
39885,52913
39789,52567
39767,52459
39741,52363
39724,52285
39712,52273
39717,52246
39714,52247
39731,52244
39737,52257
39747,52300
39769,52336
39773,52366
39747,52406
39768,52446
39785,52459
39808,52490
39799,52520
39816,52521
39815,52548
39820,52573
39831,52580
39828,52607
39853,52637
39854,52657
39858,52697
39864,52695
39864,52733
39872,52727
39864,52723
39863,52715
39859,52701
39852,52682
39844,52654
39828,52640
39843,52614
39837,52613
39822,52587
39826,52586
39834,52584
39847,52606
39837,52608
39851,52632
39844,52664
39852,52668
39840,52674
39861,52679
39883,52708
39865,52728
39877,52729
39876,52749
39883,52753
39875,52775
39893,52807
39892,52801
39904,52810
39907,52836
39889,52851
39901,52859
39911,52866
39908,52873
39919,52889
39921,52902
39932,52906
39920,52909
39936,52937
39921,52933
39921,52947
39927,52961
39948,52960
39955,52988
39942,52984
39948,52987
39940,52995
39941,53003
39941,53000
39938,53050
39952,53035
39959,53047
39956,53038
39971,53047
39942,53059
39960,53073
39965,53071
39956,53080
39964,53084
39975,53088
39972,53118
39985,53108
39968,53116
39971,53124
39961,53140
39967,53122
39967,53127
39967,53146
39989,53154
39980,53175
39988,53153
39987,53161
39991,53166
39978,53194
39992,53207
39980,53210
40002,53217
39993,53232
39991,53234
39993,53231
39985,53196
39956,53156
39946,53046
39911,52913
39847,52751
39810,52593
39794,52480
39767,52379
39750,52324
39729,52258
39743,52253
39746,52250
39765,52253
39763,52279
39765,52291
39763,52323
39779,52356
39781,52379
39791,52398
39805,52428
39790,52445
39810,52437
39811,52472
39824,52479
39826,52489
39821,52499
39825,52520
39834,52536
39838,52562
39850,52576
39846,52594
39853,52635
39859,52636
39867,52636
39861,52646
39865,52650
39862,52637
39852,52621
39857,52604
39859,52590
39855,52595
39847,52582
39849,52560
39860,52572
39843,52567
39846,52585
39850,52594
39855,52597
39867,52622
39860,52637
39867,52647
39866,52659
39879,52669
39885,52682
39883,52698
39886,52720
39886,52731
39890,52752
39910,52759
39910,52774
39922,52779
39914,52801
39934,52820
39914,52833
39903,52852
39930,52852
39922,52875
39930,52869
39976,53095
39988,53084
39992,53097
39987,53131
39996,53124
39993,53124
39990,53123
40005,53130
39995,53140
39987,53158
39988,53152
39991,53164
39988,53171
39996,53200
40014,53189
40010,53207
40005,53202
40001,53219
40004,53238
40005,53255
40004,53259
40023,53254
40022,53261
40017,53277
40020,53264
40024,53248
40004,53240
40008,53141
39941,53015
39906,52873
39865,52692
39825,52559
39798,52485
39804,52360
39777,52350
39782,52327
39782,52319
39796,52344
39779,52348
39791,52389
39814,52406
39812,52437
39831,52470
39831,52508
39847,52548
39856,52568
39865,52570
39858,52578
39859,52613
39875,52616
39872,52667
39896,52662
39895,52671
39886,52726
39914,52735
39914,52748
39953,52768
39921,52769
39900,52786
39883,52758
39909,52741
39893,52741
39898,52721
39883,52687
39880,52673
39881,52656
39879,52671
39889,52676
39885,52668
39870,52671
39892,52659
39891,52689
39901,52721
39907,52717
39896,52730
39899,52748
39920,52765
39920,52785
39901,52784
39924,52804
39917,52810
39927,52830
39924,52851
39933,52845
39938,52863
39950,52876
39941,52890
39958,52911
39946,52916
39943,52913
39957,52943
39937,52944
39968,52946
39962,52959
39973,52973
39961,52976
39971,52987
39978,52976
39978,53003
39962,53022
39986,53005
39989,53038
39973,53051
39980,53058
39980,53034
39979,53059
39971,53073
39988,53073
39984,53086
39995,53094
40003,53085
39987,53100
40008,53103
39998,53117
40017,53110
40006,53108
40008,53133
40017,53131
40012,53145
40013,53148
40006,53165
40008,53172
40008,53173
40026,53167
40010,53202
40025,53197
40020,53193
40020,53209
40030,53232
40028,53247
40045,53233
40036,53252
40026,53252
40026,53221
40011,53180
39987,53090
39955,52970
39915,52826
39873,52675
39850,52572
39826,52496
39807,52419
39814,52385
39797,52367
39799,52373
39807,52381
39829,52402
39839,52427
39831,52461
39861,52510
39868,52529
39870,52553
39883,52585
39886,52597
39894,52641
39888,52642
39905,52674
39893,52674
39898,52692
39922,52694
39920,52718
39931,52760
39942,52780
39939,52800
39947,52825
39944,52824
39937,52826
39929,52815
39938,52796
39926,52792
39928,52753
39906,52744
39908,52735
39909,52720
39911,52721
39919,52714
39910,52697
39911,52729
39910,52729
39919,52748
39930,52737
39940,52774
39941,52806
39939,52810
39955,52819
39959,52827
39939,52859
39943,52868
39956,52886
39961,52890
39974,52885
39964,52920
39970,52937
39973,52938
39979,52967
39992,52978
39984,52977
39980,53001
39995,52992
39997,53020
39998,53007
39982,53033
39994,53033
40003,53030
40013,53066
40010,53073
40025,53070
40019,53084
40013,53093
40005,53087
40017,53118
40019,53126
40031,53123
40017,53130
40039,53131
40012,53144
40016,53154
40031,53155
40035,53169
40037,53169
40042,53185
40029,53186
40020,53191
40032,53193
40042,53208
40031,53212
40041,53199
40047,53227
40037,53225
40046,53224
40031,53246
40057,53248
40055,53258
40055,53255
40055,53264
40062,53288
40059,53290
40059,53294
40051,53266
40042,53223
40003,53116
39979,53005
39926,52854
39881,52702
39848,52578
39834,52510
39816,52436
39834,52388
39824,52363
39824,52372
39830,52375
39831,52406
39842,52417
39851,52441
39857,52482
39862,52500
39871,52520
39886,52539
39876,52574
39870,52572
39893,52595
39882,52599
39899,52605
39887,52612
39893,52626
39914,52649
39925,52675
39926,52686
39930,52723
39938,52746
39936,52768
39932,52757
39942,52767
39937,52766
39938,52750
39912,52748
39917,52695
39917,52721
39931,52719
39915,52720
39926,52695
39925,52697
39914,52689
39916,52704
39931,52723
39918,52713
39938,52729
39954,52738
39929,52763
39927,52767
39931,52801
39946,52839
39954,52830
39962,52829
39962,52835
39973,52869
39963,52882
39968,52886
39974,52907
39970,52924
39976,52918
40003,52954
40006,52957
40003,52976
39982,52984
39998,53001
39938,52750
39989,53018
40004,53011
40002,53029
40016,53035
40020,53044
40015,53065
40010,53065
40019,53060
40014,53072
40023,53094
40018,53107
40025,53101
40024,53112
40025,53119
40029,53122
40030,53127
40040,53133
40044,53142
40026,53165
40031,53158
40034,53172
40042,53166
40028,53170
40028,53179
40038,53201
40042,53192
40044,53193
40048,53195
40046,53217
40047,53205
40056,53235
40033,53235
40057,53228
40042,53234
40060,53242
40071,53257
40052,53270
40049,53273
40056,53271
40050,53283
40058,53292
40082,53320
40078,53316
40060,53335
40072,53319
40064,53290
40042,53236
40009,53146
39970,53021
39935,52864
39900,52727
39879,52607
39855,52540
39842,52466
39836,52452
39845,52437
39847,52446
39855,52444
39852,52471
39862,52482
39871,52525
39877,52546
39899,52582
39889,52611
39901,52633
39919,52656
39927,52682
39930,52694
39919,52707
39925,52714
39921,52736
39933,52761
39946,52773
39958,52795
39942,52833
39960,52836
39971,52862
39964,52873
39978,52863
39972,52859
39960,52848
39966,52831
39946,52816
39942,52798
39927,52774
39941,52761
39942,52750
39952,52748
39931,52751
39947,52751
39931,52755
39951,52782
39941,52790
39954,52802
39952,52814
39957,52823
39968,52838
39972,52852
39953,52871
39981,52884
39986,52889
39975,52907
39973,52916
39979,52931
39986,52932
39985,52955
39999,52956
39979,52966
39996,52967
40003,52996
39997,52989
40012,53014
39998,53030
40019,53023
40009,53039
40005,53044
40005,53050
40008,53058
40028,53058
40015,53070
40016,53077
40022,53101
40022,53105
40023,53108
40020,53111
40030,53135
40018,53127
40020,53137
40022,53122
40029,53153
40051,53153
40033,53147
40049,53163
40041,53156
40031,53168
40032,53167
40029,53176
40045,53190
40045,53188
40036,53199
40034,53197
40041,53200
40056,53205
40042,53217
40054,53222
40061,53245
40055,53245
40061,53236
40053,53252
40070,53265
40052,53277
40082,53276
40061,53286
40059,53290
40043,53239
40036,53178
39993,53073
39954,52925
39899,52770
39885,52651
39862,52551
39840,52487
39832,52437
39835,52411
39819,52395
39839,52412
39834,52433
39845,52437
39864,52485
39862,52486
39891,52514
39883,52538
39890,52586
39887,52592
39904,52613
39896,52620
39932,52644
39898,52638
39906,52667
39906,52671
39934,52702
39947,52729
39952,52749
39952,52775
39948,52801
39959,52806
39949,52831
39960,52820
39949,52807
39937,52798
39941,52786
39921,52747
39922,52709
39928,52718
39928,52698
39929,52699
39904,52703
39931,52703
39925,52720
39937,52720
39935,52748
39944,52756
39940,52767
39931,52778
39951,52787
39958,52813
39938,52828
39956,52838
39962,52848
39975,52863
39970,52877
39989,52889
39973,52914
39986,52919
39990,52865
39981,52935
39996,52955
39993,52946
39984,52962
39998,52972
39989,52988
40007,52991
39993,52996
39996,53020
40020,53035
40014,53017
40019,53055
40004,53025
40019,53074
40018,53062
40023,53048
40026,53053
40013,53075
40021,53094
40034,53097
40032,53107
40031,53112
40032,53140
40037,53143
40042,53147
40061,53152
40064,53175
40047,53145
40035,53174
40028,53165
40033,53187
40053,53170
40053,53182
40044,53182
40055,53199
40041,53204
40051,53219
40052,53223
40043,53218
40044,53220
40044,53236
40059,53244
40067,53261
40059,53257
40066,53264
40068,53282
40058,53293
40069,53282
40070,53288
40061,53255
40055,53228
40017,53135
39978,53007
39924,52825
39889,52658
39858,52565
39831,52448
39813,52378
39797,52346
39793,52310
39801,52303
39792,52295
39820,52315
39825,52322
39815,52355
39825,52376
39834,52395
39833,52407
39841,52430
39843,52447
39869,52465
39846,52504
39867,52491
39858,52495
39858,52507
39868,52522
39871,52528
39883,52556
39892,52574
39888,52607
39883,52622
39911,52643
39908,52644
39892,52646
39905,52650
39891,52647
39892,52619
39886,52605
39892,52593
39874,52562
39889,52578
39865,52558
39867,52564
39876,52576
39883,52565
39879,52566
39884,52585
39890,52606
39899,52627
39895,52643
39883,52651
39915,52646
39896,52672
39912,52675
39914,52705
39921,52708
39920,52735
39915,52732
39944,52746
39928,52769
39948,52785
39939,52792
39953,52814
39944,52821
39952,52837
39954,52854
39940,52851
39958,52862
39967,52878
39959,52864
39967,52895
39965,52888
39966,52902
39964,52914
39968,52929
39987,52919
39993,52939
39978,52957
39981,52954
39983,52969
39983,52975
39964,52980
39994,52985
39992,53005
39992,52998
39997,53005
39985,53028
39990,53016
39997,53027
39999,53039
40002,53042
40007,53044
40005,53063
39996,53054
40015,53074
40003,53087
40007,53094
40019,53101
40004,53096
40007,53093
40013,53118
40012,53113
40009,53109
40010,53117
40028,53142
40029,53148
40019,53154
40019,53155
40029,53172
40021,53170
40037,53194
40033,53191
40028,53209
40033,53224
40037,53224
40051,53223
40027,53224
40028,53196
40010,53157
39995,53056
39925,52927
39884,52728
39838,52584
39819,52484
39785,52371
39777,52306
39774,52272
39781,52233
39774,52241
39784,52238
39786,52262
39792,52270
39799,52303
39804,52331
39799,52351
39814,52379
39818,52395
39826,52425
39829,52450
39827,52453
39841,52459
39828,52484
39853,52488
39842,52501
39859,52538
39860,52568
39881,52581
39881,52623
39875,52642
39893,52638
39887,52643
39871,52650
39873,52615
39858,52592
39861,52564
39859,52557
39861,52531
39846,52521
39844,52508
39853,52505
39829,52494
39852,52502
39860,52522
39860,52520
39867,52542
39871,52541
39878,52554
39864,52576
39869,52593
39886,52604
39877,52618
39879,52632
39895,52650
39897,52681
39904,52688
39887,52694
39899,52719
39901,52702
39905,52722
39926,52736
39916,52756
39910,52756
39908,52790
39919,52792
39899,52803
39927,52810
39931,52821
39926,52808
39940,52833
39929,52836
39934,52851
39947,52873
39937,52886
39944,52871
39943,52852
39946,52881
39947,52899
39944,52924
39958,52918
39949,52925
39947,52938
39967,52956
39964,52950
39957,52953
39976,52952
39964,52987
39974,52984
39966,52981
39968,53002
39968,53012
39976,52987
39958,52971
39975,53000
39972,53015
39983,53026
39993,53027
39992,53045
39984,53039
39986,53077
39992,53075
40014,53094
40016,53095
39982,53100
39999,53119
39937,52886
39988,53139
39998,53112
39993,53090
39964,53027
39928,52916
39895,52760
39846,52596
39803,52455
39777,52321
39747,52240
39747,52193
39734,52159
39735,52137
39731,52135
39737,52138
39747,52163
39752,52161
39739,52192
39752,52213
39763,52225
39771,52257
39787,52277
39782,52284
39779,52319
39779,52335
39798,52328
39795,52339
39800,52358
39809,52379
39795,52405
39822,52434
39820,52457
39824,52483
39821,52487
39831,52505
39826,52490
39825,52485
39833,52495
39821,52468
39828,52439
39818,52440
39816,52413
39819,52386
39797,52389
39822,52383
39813,52390
39809,52406
39807,52405
39819,52410
39816,52437
39816,52444
39835,52453
39826,52480
39842,52488
39851,52520
39847,52510
39848,52531
39852,52549
39846,52564
39879,52577
39862,52578
39876,52603
39889,52608
39889,52620
39875,52654
39898,52662
39884,52684
39899,52673
39889,52700
39901,52710
39906,52699
39902,52716
39909,52745
39904,52746
39908,52753
39907,52757
39905,52751
39917,52780
39902,52779
39928,52812
39931,52796
39923,52823
39920,52822
39925,52835
39926,52839
39932,52847
39941,52872
39950,52889
39945,52872
39948,52888
39936,52880
39953,52908
39955,52913
39949,52914
39944,52912
39952,52937
39962,52942
39972,52939
39960,52960
39966,52961
39961,52977
39966,52962
39971,52984
39973,52968
39978,52998
39978,52992
39979,52987
39954,53018
39981,53016
39982,53019
39972,53041
39986,53053
39977,53059
39992,53077
40001,53083
39987,53093
40008,53114
39995,53108
39990,53075
39982,53045
39955,52959
39901,52808
39858,52625
39816,52472
39782,52324
39745,52211
39733,52152
39705,52103
39709,52075
39706,52070
39701,52077
39706,52071
39716,52087
39711,52105
39721,52132
39748,52136
39741,52166
39744,52185
39743,52217
39760,52216
39770,52228
39764,52244
39757,52253
39771,52266
39770,52263
39770,52275
39793,52318
39795,52329
39797,52365
39818,52372
39795,52395
39810,52422
39816,52428
39808,52406
39794,52385
39801,52374
39796,52373
39794,52348
39789,52332
39784,52317
39785,52308
39786,52307
39779,52311
39788,52305
39799,52330
39802,52335
39799,52338
39803,52364
39791,52371
39802,52396
39810,52414
39826,52428
39839,52435
39836,52459
39839,52464
39841,52472
39842,52492
39845,52514
39870,52522
39838,52553
39857,52555
39858,52566
39867,52580
39882,52595
39870,52614
39862,52617
39879,52630
39887,52646
39888,52652
39883,52667
39896,52674
39891,52694
39885,52695
39899,52699
39884,52703
39908,52735
39908,52725
39914,52731
39903,52755
39906,52763
39906,52767
39916,52782
39915,52788
39927,52792
39925,52793
39920,52813
39933,52818
39932,52829
39936,52827
39937,52833
39919,52856
39923,52847
39937,52873
39939,52870
39933,52870
39947,52891
39957,52900
39947,52918
39945,52909
39945,52901
39968,52926
39953,52955
39963,52936
39972,52945
39978,52942
39969,52965
39959,52964
39973,52967
39968,52998
39968,53034
39983,53022
39976,53011
39972,53023
39988,53058
39985,53058
39992,53062
39982,53077
39991,53047
39969,53030
39948,52976
39934,52852
39892,52682
39868,52530
39772,52389
39717,52246
39939,52870
39710,52110
39721,52099
39705,52081
39704,52067
39732,52086
39728,52102
39720,52107
39727,52133
39738,52161
39752,52207
39752,52216
39760,52230
39788,52257
39780,52273
39791,52297
39800,52329
39798,52335
39789,52347
39806,52360
39814,52385
39835,52402
39815,52445
39831,52458
39841,52476
39835,52483
39839,52478
39842,52461
39837,52445
39815,52432
39824,52406
39824,52402
39803,52365
39807,52350
39802,52344
39816,52360
39798,52348
39805,52343
39789,52362
39804,52359
39815,52372
39824,52405
39831,52412
39828,52429
39835,52448
39858,52455
39831,52480
39853,52493
39853,52501
39843,52524
39854,52532
39860,52551
39864,52553
39860,52565
39872,52572
39878,52592
39875,52617
39881,52628
39894,52615
39878,52634
39884,52662
39897,52667
39896,52669
39898,52680
39899,52699
39903,52698
39901,52707
39904,52714
39926,52735
39912,52747
39928,52745
39917,52760
39903,52744
39907,52772
39924,52782
39930,52786
39925,52784
39929,52807
39920,52816
39928,52826
39934,52809
39940,52843
39925,52836
39949,52844
39948,52854
39939,52861
39955,52862
39951,52857
39967,52878
39953,52878
39955,52884
39955,52903
39962,52909
39954,52898
39962,52921
39958,52934
39962,52935
39958,52953
39955,52961
39962,52966
39970,52974
39978,52994
39964,52978
39978,52998
39985,53010
39983,53008
39988,52990
39970,52958
39928,52863
39903,52737
39846,52557
39811,52408
39782,52280
39756,52193
39738,52104
39737,52086
39723,52057
39714,52062
39741,52063
39727,52064
39724,52099
39743,52117
39750,52141
39763,52166
39772,52193
39779,52225
39777,52236
39786,52259
39814,52283
39798,52297
39800,52316
39809,52330
39816,52354
39834,52374
39825,52426
39837,52427
39846,52453
39847,52477
39861,52480
39857,52461
39839,52474
39844,52457
39835,52454
39837,52417
39817,52380
39816,52386
39833,52380
39815,52350
39834,52355
39831,52360
39832,52363
39827,52354
39827,52382
39836,52409
39851,52393
39842,52413
39861,52435
39855,52463
39866,52484
39871,52501
39878,52511
39875,52526
39863,52538
39882,52550
39875,52568
39885,52575
39895,52576
39912,52596
39892,52615
39909,52637
39904,52647
39899,52665
39926,52656
39915,52673
39919,52689
39912,52694
39923,52712
39927,52721
39930,52728
39913,52741
39939,52754
39926,52761
39935,52769
39942,52778
39946,52787
39958,52783
39946,52789
39957,52809
39954,52814
39957,52839
39969,52828
39962,52855
39966,52858
39963,52853
39963,52893
39978,52877
39962,52893
39970,52903
39978,52914
39977,52914
39988,52902
39975,52904
39981,52926
39985,52924
39977,52937
39989,52927
39996,52962
39979,52967
39994,52968
40002,52972
40007,52990
40006,52988
40008,53016
39996,53027
40014,53039
40004,53048
40018,53045
40012,53028
39989,52992
39962,52904
39929,52778
39866,52591
39846,52442
39813,52292
39761,52187
39748,52122
39740,52051
39740,52037
39725,52004
39697,52016
39737,52037
39740,52049
39756,52080
39764,52072
39778,52081
39778,52126
39786,52151
39793,52166
39793,52180
39802,52191
39815,52199
39805,52223
39809,52214
39813,52231
39840,52258
39822,52288
39800,52319
40004,53048
39833,52358
39850,52362
39866,52382
39865,52381
39850,52372
39843,52361
39853,52355
39836,52331
39836,52321
39837,52300
39830,52297
39845,52288
39842,52293
39844,52312
39837,52313
39838,52312
39849,52330
39838,52340
39864,52358
39853,52380
39866,52381
39856,52409
39876,52431
39879,52438
39876,52448
39887,52467
39889,52485
39905,52496
39898,52485
39913,52535
39916,52529
39916,52551
39918,52558
39919,52569
39934,52590
39936,52614
39947,52614
39937,52634
39931,52642
39939,52646
39952,52654
39945,52677
39945,52682
39959,52701
39968,52710
39979,52706
39963,52722
39976,52730
39979,52762
39971,52754
39990,52758
39980,52771
39981,52781
39988,52790
39986,52785
39983,52810
39990,52816
40002,52811
39995,52822
39988,52848
39991,52845
40002,52848
39995,52856
40014,52883
40017,52863
40015,52895
40010,52890
40029,52902
40011,52902
40030,52914
40015,52943
40024,52929
40017,52941
40023,52938
40035,52966
40043,52971
40025,52964
40038,52972
40044,52994
40058,52989
40029,53010
40037,53008
40050,53031
40049,53025
40059,53022
40049,53060
40057,53049
40049,53050
40044,53025
40057,53011
40028,52915
39967,52810
39937,52636
39882,52462
39855,52321
39821,52210
39794,52149
39781,52099
39787,52058
39797,52059
39782,52054
39799,52064
39802,52098
39796,52117
39812,52146
39820,52185
39855,52201
39856,52237
39851,52252
39866,52273
39872,52293
39884,52306
39874,52330
39877,52323
39889,52354
39893,52358
39891,52384
39906,52441
39914,52441
39919,52468
39917,52486
39919,52497
39931,52490
39914,52497
39913,52458
39908,52448
39919,52452
39906,52414
39900,52406
39893,52396
39904,52375
39904,52386
39910,52380
39897,52375
39895,52402
39904,52407
39917,52409
39922,52421
39923,52447
39926,52465
39929,52474
39921,52505
39948,52485
39959,52517
39955,52548
39962,52535
39950,52571
39959,52567
39967,52587
39964,52602
39971,52609
39970,52637
39980,52633
39975,52634
39984,52655
39995,52667
39987,52698
40001,52701
39992,52695
40004,52703
40006,52726
40004,52736
40003,52746
40011,52751
40012,52755
40015,52757
40016,52791
40025,52786
40015,52798
40022,52803
40032,52812
40022,52810
40028,52821
40036,52835
40024,52836
40035,52825
40025,52855
40033,52857
40037,52874
40046,52853
40037,52882
40050,52885
40048,52885
40052,52903
40050,52880
40060,52895
40049,52909
40058,52931
40068,52925
40048,52937
40065,52946
40061,52948
40071,52968
40059,52958
40068,52991
40069,53004
40063,53001
40082,52991
40089,53021
40084,53019
40091,53016
40091,53030
40074,53009
40069,52949
40032,52855
39990,52705
39940,52546
39900,52416
39872,52291
39859,52192
39832,52132
39836,52101
39819,52076
39818,52096
39844,52107
39848,52114
39847,52117
39851,52167
39865,52177
39861,52234
39891,52259
39900,52310
39901,52335
39912,52338
39918,52352
39918,52378
39956,52383
39944,52408
39939,52418
39944,52461
39959,52484
39984,52550
39964,52584
39977,52546
39975,52499
39974,52533
39964,52516
39952,52494
39940,52472
39936,52457
39930,52417
39943,52427
39924,52399
39947,52419
39950,52413
39929,52415
39930,52425
39917,52446
39913,52453
39951,52453
39960,52480
39955,52505
39970,52520
39982,52531
39981,52562
39986,52558
39983,52564
39983,52596
39991,52610
39993,52612
40001,52648
40013,52655
39991,52663
40002,52677
40019,52669
40009,52687
39998,52697
40024,52702
40032,52745
40029,52737
40029,52745
40016,52754
40051,52750
40030,52769
40046,52788
40051,52804
40043,52792
40047,52803
40049,52832
40063,52838
40053,52855
40060,52854
40055,52871
40064,52869
40069,52877
40054,52888
40055,52884
40065,52897
40063,52897
40069,52898
40077,52914
40082,52930
40078,52930
40068,52934
40071,52937
40080,52948
40072,52951
40080,52944
40080,52960
40083,52965
40098,52975
40102,52995
40092,52994
40093,53013
40101,53013
40107,53037
40104,53038
40103,53022
40079,52975
40068,52914
40029,52777
39972,52601
39940,52467
39896,52306
39872,52218
39846,52117
39844,52077
39836,52052
39817,52027
39822,52033
39829,52051
39834,52056
39839,52068
39854,52088
39856,52122
39859,52141
39866,52151
39889,52170
39870,52192
39888,52205
39890,52222
39891,52227
39887,52239
39907,52249
39901,52255
39892,52270
39915,52298
39923,52336
39920,52353
39934,52373
39922,52372
39924,52383
39944,52384
39934,52386
39925,52368
39936,52352
39924,52330
39928,52314
39916,52311
39906,52284
39916,52299
39922,52291
39919,52310
39913,52312
39913,52308
39933,52326
39919,52323
39928,52353
39941,52342
39942,52385
39960,52399
39952,52411
39957,52422
39953,52443
39955,52454
39966,52489
39974,52487
39981,52493
39991,52524
39994,52524
39987,52552
40010,52543
40017,52588
40016,52592
39999,52598
40002,52616
40005,52632
40008,52637
40010,52628
40004,52656
40027,52665
40031,52678
40032,52684
40030,52688
40042,52714
40031,52710
40052,52731
40027,52725
40036,52747
40041,52748
40042,52767
40036,52773
40059,52783
40042,52796
40057,52804
40042,52806
40061,52806
40056,52828
40057,52829
40063,52835
40069,52851
40079,52856
40055,52861
40052,52881
40087,52880
40078,52888
40090,52887
40091,52898
40079,52911
40081,52913
40100,52921
40077,52930
40096,52931
40085,52933
40093,52956
40092,52959
40096,52950
40101,52975
40111,52997
40123,53010
40111,53008
40105,53012
40120,53015
40115,53035
40124,53047
40120,53029
40100,53016
40079,52933
40047,52814
39997,52657
39952,52489
39922,52337
39864,52213
39852,52129
39863,52086
39837,52039
39841,52043
39838,52034
39843,52021
39824,52043
39862,52069
39868,52103
39879,52124
39873,52142
39884,52174
39897,52201
39894,52221
39894,52235
39894,52253
39916,52266
39913,52276
39915,52282
39925,52309
39912,52333
39953,52362
39944,52374
39965,52397
39964,52418
39958,52439
39954,52430
39956,52436
39966,52415
39955,52390
39961,52381
39940,52353
39934,52339
39939,52306
39927,52313
39946,52313
39934,52315
39936,52304
39940,52298
39940,52328
39938,52343
39944,52353
39945,52370
39969,52380
39953,52393
39960,52421
39960,52432
39983,52432
39998,52484
39974,52524
39993,52520
40001,52481
40008,52526
39995,52546
40008,52545
39994,52569
40016,52558
40010,52590
40019,52603
40042,52612
40048,52613
40042,52642
40020,52650
40023,52646
39978,52666
40029,52668
40037,52678
40051,52678
40039,52691
40035,52712
40057,52716
40052,52713
40056,52728
40057,52731
40056,52746
40052,52754
40055,52780
40071,52778
40057,52772
40078,52799
40060,52793
40082,52783
40073,52810
40092,52821
40077,52823
40084,52836
40083,52846
40099,52836
40071,52851
40091,52861
40081,52866
40093,52871
40089,52883
40084,52884
40099,52921
40101,52902
40106,52921
40106,52930
40114,52939
40100,52947
40102,52962
40115,52961
40109,52973
40114,52957
40127,52981
40109,52963
40115,52940
40086,52881
40049,52742
39996,52578
39963,52415
39923,52282
39892,52179
39889,52110
39855,52069
39874,52034
39857,52017
39874,52031
39867,52033
39868,52032
39881,52075
39872,52109
39892,52136
39909,52158
39907,52201
39924,52216
39926,52223
39922,52238
39921,52273
39934,52278
39962,52288
39947,52314
39951,52330
39964,52359
39974,52394
39986,52413
39978,52426
40006,52450
39990,52444
39999,52449
39972,52434
39987,52419
39984,52405
39970,52367
39943,52354
39963,52349
39954,52322
39956,52327
39951,52319
39960,52342
39973,52320
39956,52341
39973,52350
39970,52378
39966,52387
39975,52406
39972,52423
39994,52424
39994,52456
40010,52470
40010,52478
40022,52491
40010,52508
40021,52523
40024,52548
40016,52554
40021,52562
40041,52579
40037,52605
40054,52616
40042,52626
40039,52634
40064,52652
40053,52660
40057,52665
40061,52681
40068,52693
40074,52682
40080,52722
40083,52716
40083,52724
40078,52740
40080,52751
40085,52763
40081,52766
40088,52770
40085,52788
40093,52791
40106,52804
40105,52813
40099,52826
40100,52825
40109,52836
40111,52841
40110,52849
40117,52855
40121,52876
40117,52873
40115,52858
40115,52870
40113,52895
40114,52901
40129,52886
40134,52898
40113,52909
40127,52929
40133,52930
40140,52944
40144,52953
40147,52960
40145,52971
40143,52972
40151,52987
40152,53000
40146,52990
40134,52966
40111,52922
40092,52804
40034,52663
40006,52468
39955,52343
39913,52193
39894,52102
39875,52060
39864,51996
39863,51974
39871,51972
39863,51969
39875,51964
39879,51988
39871,52005
39889,52023
39900,52040
39907,52062
39915,52085
39923,52117
39922,52132
39919,52137
39921,52148
39932,52148
39936,52145
39943,52158
39938,52191
39932,52220
39961,52239
39958,52263
39964,52279
39986,52299
39974,52307
39976,52302
39986,52314
39977,52304
39972,52289
39964,52270
39968,52261
39957,52241
39969,52240
39961,52230
39959,52238
39975,52245
39977,52236
39964,52241
39980,52249
39973,52280
39989,52289
39990,52303
39973,52321
39997,52326
39997,52348
40000,52367
40007,52364
40028,52395
40025,52407
40038,52429
40035,52446
40050,52467
40038,52479
40036,52495
40053,52520
40052,52521
40050,52525
40064,52550
40063,52541
40072,52832
40064,52573
40075,52595
40086,52601
40075,52601
40070,52606
40090,52616
40088,52627
40106,52651
40095,52657
40060,52667
40103,52671
40120,52686
40104,52722
40100,52728
40108,52704
40118,52710
40116,52719
40121,52733
40116,52749
40122,52762
40123,52794
40124,52776
40127,52787
40128,52788
40161,52810
40170,52823
40127,52822
40122,52812
40144,52836
40129,52844
40132,52832
40153,52850
40141,52859
40159,52861
40148,52868
40147,52877
40166,52894
40153,52908
40164,52903
40160,52927
40147,52936
40180,52944
40156,52949
40177,52957
40182,52978
40189,53003
40179,52993
40176,52987
40166,52955
40145,52891
40110,52769
40070,52611
40024,52451
39995,52327
39954,52194
39943,52106
39932,52055
39918,52013
39910,52005
39911,52007
39924,52024
39932,52034
39939,52072
39951,52086
39963,52131
39961,52152
39972,52183
39978,52206
39991,52220
39990,52248
39997,52250
40012,52272
40018,52286
40014,52299
40014,52327
40037,52366
40032,52378
40056,52399
40045,52422
40069,52444
40066,52441
40070,52451
40040,52423
40046,52426
40059,52395
40057,52384
40042,52360
40032,52355
40032,52330
40019,52323
40043,52320
40032,52333
40032,52334
40051,52348
40057,52338
40064,52368
40052,52369
40065,52399
40060,52438
40064,52432
40076,52453
40073,52454
40098,52475
40094,52492
40099,52493
40085,52519
40100,52528
40102,52533
40104,52546
40109,52589
40114,52573
40113,52588
40121,52602
40111,52599
40110,52630
40121,52626
40131,52643
40133,52670
40123,52668
40143,52683
40141,52683
40141,52695
40140,52701
40155,52704
40152,52719
40156,52732
40154,52726
40152,52769
40155,52751
40170,52761
40169,52774
40165,52784
40165,52797
40175,52792
40183,52825
40182,52814
40173,52813
40183,52827
40190,52849
40204,52834
40179,52848
40194,52844
40197,52862
40186,52860
40194,52875
40196,52866
40198,52886
40214,52904
40194,52898
40213,52911
40206,52911
40206,52924
40208,52941
40211,52956
40218,52958
40213,52979
40221,52965
40232,52969
40218,52947
40186,52890
40181,52789
40119,52636
40089,52479
40061,52347
40025,52234
39993,52143
39974,52097
39971,52060
39969,52036
39966,52018
39974,52031
39981,52051
39991,52079
39987,52108
40013,52115
40025,52147
40023,52183
40035,52215
40032,52213
40035,52244
40041,52266
40047,52255
40072,52282
40049,52296
40066,52321
40066,52349
40089,52387
40106,52407
40095,52415
40091,52441
40105,52440
40099,52456
40106,52431
40084,52439
40102,52408
40078,52381
40080,52381
40068,52364
40077,52335
40073,52343
40072,52341
40071,52339
40069,52341
40087,52373
40077,52358
40107,52379
40096,52397
40099,52418
40115,52439
40106,52440
40113,52466
40117,52486
40129,52496
40141,52511
40131,52512
40139,52550
40142,52546
40134,52566
40150,52571
40155,52589
40171,52602
40157,52608
40178,52623
40162,52648
40166,52653
40168,52667
40178,52688
40177,52699
40184,52672
40196,52709
40190,52723
40185,52719
40188,52727
40197,52727
40193,52764
40202,52760
40198,52764
40204,52782
40211,52780
40206,52803
40214,52798
40219,52809
40207,52823
40213,52840
40222,52858
40214,52838
40230,52833
40229,52878
40222,52866
40233,52862
40235,52875
40230,52876
40236,52892
40233,52896
40232,52904
40247,52910
40247,52927
40234,52916
40246,52935
40234,52945
40251,52978
40246,52958
40257,52953
40248,52980
40243,52971
40267,52971
40273,52989
40267,53020
40281,53040
40291,53029
40267,53037
40275,53060
40287,53052
40270,53024
40240,52959
40190,52856
40222,52858
40106,52521
40081,52383
40048,52283
40042,52164
40005,52107
40014,52084
39999,52046
40000,52057
40004,52066
40027,52079
40025,52089
40031,52110
40040,52131
40048,52162
40051,52192
40072,52203
40057,52210
40055,52227
40084,52263
40078,52252
40068,52264
40071,52283
40078,52295
40094,52310
40089,52337
40115,52349
40109,52382
40109,52410
40109,52421
40116,52432
40126,52438
40118,52436
40115,52419
40106,52397
40115,52375
40089,52380
40112,52340
40101,52342
40109,52334
40098,52351
40098,52348
40095,52348
40107,52355
40110,52371
40116,52392
40136,52409
40124,52414
40128,52411
40125,52433
40147,52449
40127,52470
40133,52462
40150,52494
40154,52519
40155,52535
40173,52536
40161,52563
40162,52567
40175,52597
40169,52591
40191,52597
40191,52627
40172,52631
40196,52644
40187,52643
40199,52658
40182,52666
40198,52686
40204,52685
40199,52688
40220,52706
40197,52716
40205,52732
40221,52745
40225,52735
40224,52764
40226,52763
40227,52781
40232,52770
40238,52783
40227,52804
40223,52800
40229,52817
40230,52819
40247,52819
40245,52819
40231,52837
40243,52843
40236,52859
40249,52863
40245,52865
40256,52867
40239,52888
40254,52878
40260,52899
40252,52901
40256,52917
40248,52913
40270,52917
40262,52935
40279,52938
40272,52942
40269,52954
40268,52962
40259,52960
40255,52984
40278,52977
40289,52982
40281,52997
40293,53007
40292,53033
40290,53036
40291,53046
40286,53016
40287,53040
40267,52989
40266,52924
40228,52819
40186,52681
40141,52499
40133,52407
40081,52302
40053,52221
40068,52175
40046,52146
40054,52137
40052,52139
40054,52173
40069,52188
40074,52217
40093,52243
40086,52277
40103,52314
40119,52334
40132,52367
40132,52400
40121,52403
40129,52419
40146,52438
40142,52435
40159,52478
40162,52499
40179,52528
40175,52546
40196,52560
40176,52589
40174,52586
40185,52593
40177,52587
40193,52563
40169,52553
40170,52539
40166,52514
40158,52486
40156,52482
40164,52469
40150,52476
40153,52460
40158,52474
40149,52492
40163,52494
40179,52510
40163,52538
40182,52536
40192,52558
40179,52571
40200,52579
40198,52587
40196,52618
40198,52626
40215,52632
40201,52656
40210,52677
40205,52669
40215,52685
40213,52697
40232,52708
40225,52717
40241,52724
40232,52738
40226,52748
40233,52752
40245,52772
40236,52786
40243,52787
40237,52797
40249,52791
40257,52821
40253,52829
40265,52836
40255,52833
40253,52861
40260,52853
40254,52862
40277,52889
40253,52881
40270,52886
40269,52898
40265,52901
40283,52912
40278,52931
40270,52937
40270,52934
40275,52936
40284,52945
40290,52950
40287,52950
40276,52966
40270,52960
40284,52979
40284,52976
40296,52984
40292,53028
40303,52999
40299,53007
40306,53020
40315,53040
40299,53030
40313,53039
40292,53064
40311,53056
40311,53037
40283,53001
40277,52950
40248,52828
40210,52675
40158,52532
40118,52426
40101,52323
40085,52238
40062,52206
40082,52194
40077,52144
40076,52161
40090,52191
40096,52220
40105,52253
40117,52284
40119,52305
40136,52323
40137,52360
40150,52384
40163,52377
40178,52393
40152,52407
40151,52401
40165,52435
40139,52439
40169,52477
40170,52497
40193,52519
40185,52555
40184,52566
40201,52582
40195,52569
40204,52562
40175,52551
40183,52532
40169,52513
40170,52493
40179,52491
40178,52488
40158,52469
40172,52484
40173,52482
40171,52486
40184,52494
40182,52503
40176,52519
40194,52532
40193,52562
40197,52568
40193,52583
40204,52597
40227,52617
40203,52622
40210,52643
40210,52655
40205,52671
40243,52681
40226,52693
40235,52693
40234,52723
40244,52737
40249,52729
40249,52743
40239,52762
40243,52770
40240,52782
40251,52789
40266,52804
40316,53019
40301,53013
40294,53004
40313,53012
40313,53030
40318,53042
40313,53042
40313,53048
40314,53059
40315,53062
40311,53068
40328,53087
40315,53088
40335,53105
40322,53132
40324,53115
40327,53120
40340,53128
40329,53122
40330,53084
40306,53032
40271,52929
40235,52790
40192,52626
40142,52487
40127,52387
40093,52290
40093,52238
40068,52216
40092,52204
40087,52195
40092,52213
40094,52216
40093,52244
40099,52257
40106,52271
40129,52335
40123,52347
40155,52364
40135,52382
40151,52392
40172,52411
40161,52409
40144,52423
40145,52431
40158,52432
40174,52484
40186,52494
40189,52509
40186,52558
40207,52573
40194,52573
40223,52578
40207,52574
40203,52580
40190,52572
40199,52553
40182,52549
40184,52522
40181,52527
40172,52512
40175,52504
40179,52507
40184,52514
40192,52519
40186,52537
40180,52530
40181,52541
40187,52556
40202,52576
40206,52590
40209,52598
40202,52626
40219,52627
40221,52658
40225,52651
40230,52678
40222,52690
40228,52698
40231,52702
40237,52702
40252,52735
40240,52743
40236,52755
40259,52794
40236,52775
40258,52780
40266,52799
40265,52809
40275,52816
40274,52824
40274,52838
40279,52848
40270,52852
40272,52872
40285,52865
40292,52888
40288,52892
40281,52901
40287,52912
40270,52896
40282,52926
40276,52912
40277,52922
40293,52948
40289,52953
40300,52945
40291,52978
40300,52971
40306,52970
40303,52980
40303,52985
40308,53001
40310,52999
40315,53006
40316,53004
40318,53019
40315,53030
40303,53036
40314,53031
40317,53040
40318,53061
40315,53050
40319,53071
40324,53062
40327,53079
40314,53084
40327,53092
40329,53100
40335,53117
40323,53116
40337,53135
40350,53137
40338,53172
40344,53158
40334,53163
40345,53146
40337,53124
40318,53072
40281,52963
40245,52843
40195,52677
40171,52545
40150,52459
40119,52372
40111,52316
40109,52267
40101,52274
40110,52296
40121,52295
40120,52323
40131,52351
40136,52387
40145,52407
40155,52441
40168,52459
40200,52492
40180,52515
40203,52548
40185,52548
40186,52564
40335,53117
40205,52616
40205,52626
40220,52651
40221,52645
40229,52704
40243,52719
40238,52713
40226,52730
40240,52704
40219,52687
40229,52677
40214,52645
40223,52629
40197,52627
40195,52605
40184,52621
40109,52267
40189,52620
40202,52616
40208,52620
40221,52634
40207,52654
40210,52669
40227,52689
40223,52701
40229,52708
40229,52708
40237,52739
40251,52749
40236,52760
40242,52784
40235,52798
40239,52794
40266,52806
40263,52814
40268,52840
40269,52826
40262,52847
40272,52847
40269,52873
40279,52878
40257,52887
40295,52894
40278,52884
40269,52909
40279,52917
40278,52918
40284,52923
40279,52947
40280,52938
40296,52958
40301,52989
40295,52965
40294,52995
40302,53010
40311,53007
40322,53016
40319,53028
40313,53041
40316,53036
40311,53032
40318,53054
40315,53063
40320,53064
40317,53047
40317,53068
40323,53086
40311,53079
40312,53087
40319,53093
40320,53095
40331,53098
40343,53120
40316,53134
40335,53114
40331,53122
40330,53145
40318,53151
40322,53163
40348,53156
40346,53172
40334,53158
40322,53119
40312,53075
40274,52973
40231,52823
40195,52667
40162,52561
40135,52469
40119,52378
40110,52321
40089,52294
40102,52305
40114,52285
40102,52293
40110,52313
40116,52335
40112,52362
40138,52388
40139,52409
40148,52424
40144,52450
40153,52457
40161,52497
40158,52502
40154,52508
40171,52510
40171,52541
40170,52539
40188,52553
40197,52596
40202,52625
40211,52641
40211,52655
40193,52673
40193,52669
40210,52674
40191,52650
40195,52650
40203,52623
40204,52621
40204,52602
40184,52595
40174,52585
40199,52596
40183,52576
40197,52591
40182,52593
40195,52609
40203,52617
40209,52622
40202,52637
40204,52651
40211,52662
40219,52678
40220,52694
40229,52702
40231,52705
40226,52714
40228,52729
40227,52748
40221,52770
40247,52773
40231,52800
40244,52804
40256,52801
40246,52818
40248,52833
40248,52850
40259,52860
40258,52853
40259,52862
40264,52874
40274,52882
40256,52883
40263,52898
40278,52899
40266,52910
40265,52926
40276,52931
40265,52940
40263,52945
40287,52954
40280,52960
40290,52980
40283,52983
40287,52986
40280,52983
40271,53006
40291,53015
40293,53013
40297,53021
40290,53029
40304,53028
40318,53045
40295,53027
40305,53058
40294,53067
40297,53065
40296,53069
40301,53068
40307,53070
40300,53064
40301,53079
40321,53090
40321,53100
40320,53105
40304,53110
40315,53115
40326,53153
40314,53137
40335,53140
40299,53140
40307,53135
40300,53066
40264,53000
40243,52862
40191,52710
40154,52582
40130,52462
40110,52351
40077,52306
40071,52256
40070,52234
40072,52243
40065,52240
40066,52234
40092,52243
40090,52263
40113,52299
40104,52310
40109,52330
40114,52355
40112,52369
40122,52382
40121,52403
40141,52403
40125,52433
40134,52419
40131,52440
40147,52451
40124,52475
40154,52490
40153,52504
40175,52532
40179,52541
40143,52563
40179,52559
40170,52567
40156,52572
40148,52530
40152,52518
40163,52496
40146,52487
40153,52484
40152,52474
40141,52500
40151,52490
40131,52469
40151,52489
40152,52517
40150,52515
40146,52524
40166,52539
40138,52542
40159,52542
40173,52581
40154,52596
40177,52615
40167,52593
40182,52609
40200,52654
40208,52671
40201,52668
40197,52688
40207,52694
40202,52710
40223,52707
40215,52720
40238,52722
40221,52741
40193,52751
40209,52739
40215,52775
40202,52769
40230,52799
40218,52793
40219,52800
40212,52805
40227,52809
40243,52834
40243,52853
40233,52863
40250,52861
40255,52861
40255,52879
40240,52890
40251,52899
40233,52910
40238,52897
40245,52891
40232,52849
40200,52786
40179,52656
40143,52546
40119,52410
40102,52327
40072,52266
40044,52185
40045,52150
40035,52115
40030,52124
40032,52113
40039,52134
40045,52142
40051,52166
40063,52177
40062,52196
40068,52219
40078,52254
40087,52260
40094,52280
40101,52298
40104,52296
40115,52329
40108,52364
40117,52367
40126,52397
40132,52427
40140,52451
40133,52465
40141,52472
40145,52499
40135,52483
40132,52485
40136,52469
40138,52452
40129,52425
40126,52412
40118,52392
40117,52397
40123,52384
40110,52387
40123,52391
40111,52380
40129,52398
40125,52405
40131,52418
40133,52437
40135,52439
40133,52465
40148,52463
40151,52488
40149,52489
40153,52525
40162,52521
40159,52527
40165,52554
40165,52570
40180,52563
40175,52586
40180,52597
40165,52585
40183,52621
40180,52620
40177,52635
40189,52645
40201,52658
40192,52681
40194,52672
40201,52670
40189,52694
40195,52692
40193,52713
40214,52710
40199,52708
40199,52728
40196,52721
40200,52700
40172,52673
40164,52588
40148,52470
40113,52359
40078,52266
40046,52176
40046,52095
40015,52045
40008,52010
40022,51996
40010,52001
40011,51992
40015,52003
40033,52016
40029,52038
40041,52046
40030,52060
40043,52101
40058,52113
40048,52141
40055,52137
40067,52145
40067,52169
40077,52202
40087,52211
40099,52242
40102,52283
40126,52280
40104,52336
40116,52334
40122,52346
40107,52360
40116,52327
40121,52334
40100,52307
40097,52286
40102,52283
40109,52257
40093,52258
40093,52239
40096,52219
40100,52234
40096,52250
40097,52234
40117,52249
40105,52258
40110,52267
40106,52291
40114,52308
40115,52333
40116,52344
40134,52363
40147,52365
40133,52385
40139,52391
40150,52411
40132,52413
40141,52421
40149,52434
40165,52449
40143,52461
40173,52469
40148,52471
40154,52481
40157,52492
40156,52496
40171,52519
40165,52523
40174,52522
40178,52554
40169,52565
40191,52555
40201,52571
40194,52573
40188,52573
40182,52571
40177,52560
40158,52502
40139,52384
40107,52247
40066,52140
40038,52014
40003,51943
39992,51853
39976,51797
39967,51759
39960,51740
39955,51728
39969,51737
39961,51747
39973,51755
39984,51757
39972,51772
39989,51774
39983,51798
39993,51793
39981,51790
39985,51806
40002,51821
40018,51843
40006,51853
39993,51847
40019,51868
40033,51881
40035,51911
40046,51936
40044,51937
40040,51981
40040,52003
40038,51989
40038,51969
40045,51985
40042,51965
40037,51935
40038,51945
40033,51913
40027,51909
40043,51918
40029,51888
40033,51896
40035,51910
40035,51910
40035,51924
40047,51932
40058,51940
40059,51955
40048,51972
40056,51982
40079,51994
40077,52017
40064,52042
40081,52039
40085,52070
40094,52076
40100,52107
40090,52117
40115,52125
40095,52164
40111,52158
40122,52211
40120,52219
40124,52186
40127,52202
40130,52218
40137,52240
40132,52251
40142,52272
40144,52286
40154,52278
40153,52285
40166,52305
40179,52305
40190,52319
40167,52333
40171,52346
40047,51932
40159,52361
40167,52354
40180,52371
40177,52361
40180,52387
40197,52391
40194,52409
40171,52403
40184,52415
40202,52430
40191,52470
40200,52460
40210,52454
40206,52465
40186,52472
40208,52480
40201,52495
40213,52491
40205,52513
40229,52535
40220,52531
40219,52545
40229,52557
40225,52571
40228,52559
40240,52573
40248,52586
40238,52595
40244,52616
40250,52636
40247,52640
40252,52654
40272,52655
40243,52644
40239,52570
40196,52446
40134,52287
40101,52124
40065,51964
40041,51838
40012,51763
39981,51696
39977,51675
39973,51628
39969,51616
39979,51616
39976,51624
39977,51621
39980,51649
39993,51658
39996,51681
40004,51685
40002,51702
40029,51705
40019,51705
40018,51716
40013,51734
40030,51748
40017,51744
40021,51755
40026,51774
40045,51807
40048,51816
40054,51852
40057,51877
40060,51877
40059,51885
40064,51901
40068,51891
40052,51879
40055,51865
40058,51851
40075,51836
40041,51829
40032,51816
40050,51806
40036,51800
40025,51814
40047,51811
40049,51809
40052,51821
40062,51832
40066,51857
40059,51856
40063,51885
40059,51891
40080,51901
40076,51923
40081,51942
40085,51960
40082,51958
40092,51985
40109,52006
40115,52024
40114,52030
40124,52054
40123,52054
40107,52086
40116,52107
40136,52105
40135,52110
40138,52124
40145,52134
40150,52154
40128,52154
40139,52156
40151,52173
40135,52180
40150,52185
40149,52174
40153,52196
40157,52192
40152,52204
40156,52227
40167,52233
40173,52228
40164,52241
40168,52239
40170,52267
40172,52270
40176,52279
40185,52291
40170,52290
40180,52305
40175,52322
40179,52320
40202,52348
40197,52348
40180,52361
40193,52371
40208,52370
40206,52392
40208,52410
40225,52423
40218,52442
40222,52444
40222,52449
40226,52463
40234,52479
40220,52496
40243,52495
40239,52516
40238,52521
40248,52519
40238,52547
40248,52552
40253,52575
40245,52572
40261,52592
40253,52591
40273,52615
40270,52620
40262,52620
40276,52622
40258,52600
40247,52552
40204,52419
40155,52269
40119,52087
40073,51930
40035,51828
40004,51736
39995,51678
39997,51655
39980,51632
39989,51621
39992,51609
40007,51634
40013,51660
40013,51652
40009,51691
40016,51724
40033,51738
40030,51768
40053,51805
40048,51819
40054,51822
40059,51846
40062,51859
40065,51879
40073,51879
40086,51912
40097,51929
40077,51953
40092,51970
40107,52002
40103,52013
40109,52010
40111,52000
40088,51994
40105,51970
40081,51939
40093,51939
40063,51905
40068,51893
40059,51879
40076,51875
40072,51866
40068,51865
40058,51887
40075,51884
40068,51899
40083,51917
40087,51940
40086,51930
40087,51958
40100,51963
40101,51993
40117,52003
40108,52026
40130,52052
40123,52059
40132,52069
40132,52096
40137,52114
40134,52118
40135,52126
40137,52127
40151,52155
40146,52135
40148,52191
40150,52178
40167,52189
40160,52208
40164,52205
40164,52230
40161,52239
40177,52251
40164,52255
40184,52247
40171,52281
40160,52281
40176,52295
40198,52310
40083,51917
40178,52331
40182,52357
40194,52365
40194,52348
40197,52350
40204,52383
40215,52392
40203,52409
40219,52419
40212,52431
40211,52426
40214,52438
40243,52441
40232,52478
40232,52478
40208,52474
40194,52489
40218,52502
40240,52505
40236,52520
40243,52529
40246,52542
40250,52535
40253,52569
40249,52581
40254,52567
40253,52577
40239,52530
40222,52455
40172,52344
40143,52173
40090,52032
40058,51891
40046,51827
40022,51749
40011,51711
39999,51688
39997,51663
39989,51657
40002,51689
39999,51678
40009,51697
40026,51741
40024,51740
40028,51795
40046,51818
40056,51833
40063,51873
40067,51883
40073,51905
40084,51927
40077,51958
40096,51977
40092,51994
40097,52031
40115,52049
40129,52054
40132,52099
40134,52105
40146,52111
40118,52094
40114,52073
40109,52069
40112,52040
40097,52021
40104,51980
40087,51966
40082,51958
40083,51942
40094,51949
40074,51954
40072,51951
40081,51965
40087,51982
40093,52006
40083,52018
40113,52036
40107,52053
40111,52068
40110,52079
40120,52107
40130,52125
40133,52151
40135,52166
40146,52174
40138,52189
40142,52208
40156,52229
40155,52241
40157,52248
40160,52275
40171,52289
40180,52282
40169,52285
40171,52280
40168,52311
40180,52332
40184,52348
40191,52357
40186,52370
40185,52373
40193,52377
40204,52391
40200,52400
40194,52411
40198,52440
40198,52447
40197,52444
40223,52466
40222,52474
40212,52478
40219,52483
40246,52500
40231,52511
40233,52515
40233,52536
40232,52529
40239,52536
40243,52543
40243,52553
40242,52571
40236,52566
40244,52573
40258,52597
40253,52612
40260,52619
40256,52630
40268,52645
40264,52656
40271,52655
40272,52673
40273,52684
40277,52668
40264,52633
40229,52549
40192,52406
40150,52241
40097,52081
40056,51947
40028,51851
40005,51787
40006,51728
39993,51695
39982,51692
39990,51695
39987,51687
39993,51698
39996,51721
40008,51738
40013,51741
40031,51765
40028,51795
40035,51822
40018,51824
40046,51842
40051,51875
40047,51878
40056,51904
40058,51907
40062,51922
40069,51939
40077,51958
40081,51993
40081,52017
40082,52030
40082,52034
40081,52046
40093,52039
40088,52035
40090,52028
40067,52003
40087,51999
40061,51986
40047,51957
40059,51952
40055,51943
40070,51942
40060,51933
40052,51945
40048,51960
40071,51968
40069,51983
40068,51998
40069,52004
40083,52027
40087,52044
40072,52049
40095,52074
40108,52091
40126,52123
40110,52117
40114,52135
40114,52155
40130,52167
40143,52194
40140,52193
40131,52212
40141,52227
40152,52252
40151,52248
40139,52255
40154,52273
40149,52285
40160,52288
40154,52321
40162,52331
40158,52333
40173,52342
40178,52357
40163,52379
40164,52374
40177,52382
40173,52411
40174,52404
40193,52427
40180,52429
40201,52451
40194,52450
40175,52470
40190,52470
40210,52488
40209,52495
40198,52504
40215,52529
40205,52534
40223,52543
40200,52541
40219,52564
40214,52562
40216,52565
40219,52581
40236,52585
40231,52585
40230,52624
40252,52617
40251,52617
40249,52643
40247,52628
40252,52642
40250,52664
40248,52669
40265,52675
40263,52694
40260,52708
40266,52708
40272,52735
40261,52730
40264,52721
40253,52696
40207,52620
40185,52482
40133,52313
40097,52154
40043,51957
39998,51777
39974,51733
39967,51729
39979,51720
39964,51703
39982,51726
39974,51734
39991,51749
40019,51781
40012,51799
40020,51823
40011,51855
40001,51871
40014,51906
40041,51916
40033,51924
40052,51951
40042,51982
40056,51970
40067,51982
40062,52020
40082,52037
40083,52082
40089,52079
40077,52114
40096,52105
40112,52113
40085,52118
40079,52118
40068,52099
40069,52073
40074,52051
40056,52039
40077,52017
40056,52006
40050,52003
40063,51997
40054,51995
40063,52014
40053,52015
40053,52020
40067,52039
40060,52057
40071,52072
40092,52093
40086,52116
40072,52125
40082,52137
40087,52142
40104,52166
40106,52192
40100,52215
40123,52201
40123,52224
40123,52244
40101,52278
40135,52262
40133,52289
40130,52290
40129,52288
40137,52324
40139,52326
40137,52332
40149,52370
40152,52355
40147,52370
40177,52390
40159,52391
40167,52393
40169,52427
40159,52437
40161,52443
40170,52450
40168,52465
40162,52477
40185,52469
40195,52484
40171,52507
40195,52513
40183,52521
40186,52524
40199,52536
40192,52543
40196,52553
40198,52573
40214,52568
40189,52575
40213,52595
40216,52593
40205,52597
40211,52605
40213,52617
40217,52626
40225,52646
40215,52650
40240,52653
40226,52667
40232,52666
40234,52696
40224,52699
40238,52703
40245,52723
40259,52704
40249,52723
40252,52743
40244,52746
40236,52737
40229,52708
40209,52622
40173,52481
40122,52335
40089,52165
40033,52025
40011,51926
40011,51854
39994,51814
39964,51790
39975,51790
39988,51785
39983,51798
39987,51833
40005,51861
40008,51893
40017,51915
40034,51950
40036,51972
40049,52006
40055,52054
40082,52060
40077,52109
40077,52108
40077,52147
40080,52151
40101,52190
40100,52225
40120,52241
40116,52246
40116,52268
40122,52288
40135,52277
40124,52269
40112,52263
40106,52235
40105,52216
40097,52178
40080,52157
40085,52149
40087,52122
40078,52118
40096,52113
40089,52113
40079,52134
40085,52123
40078,52144
40077,52177
40103,52181
40099,52197
40115,52231
40112,52241
40117,52252
40115,52266
40127,52289
40134,52314
40131,52322
40139,52339
40137,52359
40147,52363
40150,52377
40149,52382
40169,52416
40157,52422
40152,52419
40163,52427
40176,52452
40167,52444
40186,52473
40168,52463
40182,52485
40189,52493
40177,52504
40175,52520
40193,52538
40193,52537
40194,52542
40204,52544
40196,52560
40214,52561
40211,52595
40205,52590
40219,52601
40207,52630
40213,52628
40218,52611
40217,52653
40227,52640
40231,52653
40231,52661
40237,52687
40233,52699
40234,52679
40225,52689
40229,52692
40236,52688
40233,52705
40230,52714
40250,52739
40247,52746
40247,52761
40249,52766
40254,52766
40260,52778
40279,52792
40261,52788
40250,52783
40233,52725
40221,52651
40177,52479
40119,52312
40076,52155
40040,52029
40016,51914
40009,51855
39979,51809
39974,51794
39962,51771
39974,51796
39967,51771
39980,51784
39991,51788
39990,51819
39992,51839
39997,51889
40017,51923
40027,51928
40039,51956
40033,51972
40043,51994
40049,52025
40044,52017
40064,52041
40053,52070
40062,52083
40065,52127
40085,52151
40086,52169
40101,52180
40096,52159
40082,52163
40088,52163
40081,52154
40091,52136
40075,52121
40078,52101
40069,52102
40060,52079
40084,52067
40098,52072
40093,52067
40078,52078
40080,52096
40053,52106
40072,52118
40088,52138
40089,52153
40089,52176
40083,52189
40104,52209
40104,52216
40114,52234
40112,52273
40102,52274
40128,52271
40121,52298
40124,52323
40136,52324
40139,52348
40152,52348
40145,52381
40143,52385
40152,52404
40156,52415
40165,52416
40154,52430
40152,52435
40172,52465
40161,52454
40169,52474
40188,52484
40182,52492
40179,52501
40183,52510
40191,52523
40191,52534
40195,52548
40197,52554
40204,52561
40219,52573
40204,52583
40207,52607
40223,52598
40215,52609
40213,52620
40233,52627
40223,52629
40220,52654
40233,52658
40241,52669
40239,52677
40241,52677
40224,52678
40253,52685
40225,52695
40234,52702
40236,52713
40248,52706
40249,52739
40253,52761
40251,52745
40250,52765
40268,52778
40262,52790
40268,52796
40274,52793
40276,52810
40262,52809
40261,52786
40243,52731
40229,52641
40172,52454
40118,52292
40082,52126
40051,51999
40006,51892
39987,51841
39986,51802
39992,51779
39977,51752
39976,51771
39986,51762
39987,51793
39980,51811
40000,51841
40007,51862
40030,51891
40020,51926
40039,51942
40053,51987
40050,52000
40059,52014
40062,52028
40057,52058
40063,52077
40074,52087
40082,52104
40081,52156
40094,52156
40105,52174
40105,52206
40121,52193
40114,52202
40094,52196
40102,52177
40104,52179
40093,52158
40071,52132
40094,52119
40081,52089
40066,52094
40080,52075
40081,52088
40089,52083
40097,52091
40086,52100
40078,52114
40086,52150
40115,52137
40103,52177
40118,52180
40134,52202
40110,52231
40132,52237
40139,52242
40133,52289
40129,52283
40150,52308
40145,52303
40163,52340
40158,52359
40153,52351
40170,52371
40165,52385
40172,52391
40185,52432
40187,52426
40183,52428
40177,52452
40199,52447
40185,52457
40190,52462
40188,52485
40202,52486
40214,52514
40207,52519
40198,52520
40213,52543
40225,52541
40226,52559
40233,52569
40223,52578
40231,52575
40233,52599
40237,52608
40228,52600
40251,52611
40246,52615
40243,52644
40222,52623
40237,52647
40235,52660
40256,52657
40253,52665
40266,52676
40244,52681
40261,52693
40253,52713
40258,52699
40257,52707
40247,52730
40278,52735
40267,52755
40273,52761
40274,52770
40291,52765
40274,52790
40287,52806
40278,52794
40290,52795
40287,52789
40277,52753
40251,52673
40209,52548
40160,52367
40123,52228
40070,52095
40063,51964
40033,51907
40036,51855
40013,51828
40018,51823
40022,51822
40022,51852
40044,51876
40056,51902
40054,51930
40073,51959
40079,51986
40087,52028
40101,52060
40102,52086
40104,52124
40116,52143
40132,52158
40139,52186
40136,52225
40146,52233
40163,52285
40161,52300
40173,52320
40170,52327
40183,52349
40168,52346
40171,52331
40155,52318
40162,52299
40151,52271
40146,52244
40151,52223
40145,52212
40142,52184
40132,52190
40129,52179
40141,52195
40161,52185
40147,52202
40140,52216
40170,52223
40167,52254
40168,52260
40188,52302
40179,52299
40206,52369
40193,52378
40210,52392
40204,52368
40211,52411
40221,52391
40224,52427
40205,52449
40229,52450
40223,52482
40235,52489
40230,52509
40248,52502
40264,52521
40230,52525
40249,52536
40233,52546
40246,52550
40231,52563
40257,52576
40257,52569
40274,52584
40258,52590
40260,52606
40280,52617
40275,52638
40274,52643
40281,52659
40275,52671
40286,52669
40286,52661
40303,52697
40286,52695
40297,52706
40311,52713
40293,52731
40300,52730
40301,52729
40300,52737
40323,52746
40295,52761
40320,52775
40310,52768
40323,52775
40331,52799
40321,52798
40328,52810
40331,52819
40320,52823
40322,52828
40336,52838
40315,52832
40310,52810
40316,52770
40282,52664
40225,52526
40185,52345
40162,52182
40112,52071
40082,51956
40074,51912
40064,51862
40053,51841
40056,51837
40067,51822
40064,51833
40086,51875
40080,51881
40083,51914
40086,51929
40112,51955
40105,51996
40110,52039
40141,52051
40126,52074
40146,52102
40149,52096
40151,52126
40145,52146
40169,52157
40165,52190
40187,52221
40187,52249
40202,52273
40181,52306
40198,52287
40207,52284
40197,52268
40185,52277
40188,52247
40167,52226
40173,52213
40179,52189
40163,52186
40160,52167
40164,52175
40167,52169
40178,52180
40177,52171
40197,52189
40201,52222
40192,52233
40198,52247
40193,52273
40216,52284
40207,52302
40223,52323
40225,52332
40232,52335
40242,52363
40229,52376
40241,52390
40247,52412
40254,52426
40257,52438
40260,52456
40257,52463
40263,52482
40273,52492
40269,52492
40280,52500
40294,52523
40288,52544
40284,52539
40293,52549
40287,52561
40284,52565
40289,52582
40295,52574
40306,52590
40298,52607
40307,52610
40305,52638
40302,52631
40315,52629
40326,52660
40323,52679
40316,52676
40341,52666
40333,52694
40335,52697
40330,52708
40347,52708
40334,52734
40338,52739
40336,52729
40348,52734
40359,52744
40359,52756
40343,52752
40356,52761
40362,52776
40376,52799
40364,52794
40366,52801
40366,52786
40364,52812
40365,52824
40381,52838
40377,52828
40380,52855
40389,52862
40383,52855
40385,52880
40377,52875
40386,52887
40360,52867
40358,52801
40317,52702
40275,52538
40239,52355
40205,52219
40150,52081
40136,51980
40112,51925
40106,51885
40112,51853
40093,51842
40105,51855
40104,51869
40109,51890
40118,51887
40135,51945
40133,51951
40134,51985
40158,52019
40170,52059
40182,52060
40178,52080
40192,52105
40178,52112
40210,52126
40209,52138
40212,52159
40217,52180
40225,52209
40237,52235
40223,52266
40236,52279
40258,52284
40242,52299
40244,52286
40236,52281
40222,52262
40231,52250
40228,52237
40230,52204
40213,52206
40224,52213
40218,52205
40216,52189
40234,52196
40230,52217
40234,52233
40238,52239
40255,52264
40251,52278
40247,52300
40264,52302
40266,52327
40268,52336
40271,52335
40279,52375
40269,52388
40297,52390
40298,52412
40294,52428
40305,52453
40296,52456
40311,52466
40313,52486
40320,52496
40311,52511
40312,52522
40325,52522
40332,52508
40325,52543
40335,52561
40343,52577
40346,52572
40347,52586
40359,52594
40342,52604
40354,52606
40338,52619
40379,52629
40358,52660
40358,52650
40381,52658
40361,52680
40376,52708
40374,52688
40375,52673
40369,52683
40367,52725
40378,52718
40389,52737
40393,52749
40378,52752
40394,52744
40404,52769
40418,52767
40422,52778
40413,52782
40390,52782
40312,52522
40402,52798
40400,52797
40410,52804
40413,52805
40427,52826
40402,52865
40423,52845
40404,52862
40425,52877
40425,52868
40427,52910
40419,52894
40431,52898
40433,52913
40451,52926
40439,52919
40438,52901
40415,52888
40403,52827
40383,52724
40333,52556
40282,52392
40251,52263
40217,52140
40207,52033
40185,51987
40178,51954
40158,51937
40166,51946
40168,51955
40178,51977
40191,51984
40214,52022
40218,52058
40214,52104
40240,52126
40251,52177
40244,52192
40256,52224
40261,52242
40265,52255
40280,52286
40288,52300
40293,52319
40291,52363
40307,52371
40322,52407
40311,52430
40319,52436
40334,52434
40313,52462
40323,52444
40303,52413
40320,52404
40313,52384
40303,52348
40296,52349
40280,52321
40291,52325
40282,52305
40292,52309
40289,52317
40285,52317
40304,52338
40297,52339
40319,52366
40307,52371
40311,52393
40334,52412
40330,52435
40334,52441
40336,52462
40337,52478
40348,52484
40339,52519
40348,52510
40364,52551
40351,52546
40372,52556
40368,52561
40386,52574
40380,52588
40373,52608
40368,52596
40372,52616
40387,52628
40397,52638
40388,52651
40388,52649
40399,52662
40407,52656
40406,52682
40404,52688
40406,52691
40419,52725
40411,52728
40403,52731
40414,52725
40426,52752
40420,52752
40425,52749
40407,52769
40429,52773
40419,52784
40435,52782
40439,52810
40429,52813
40437,52795
40446,52818
40435,52812
40453,52817
40436,52832
40445,52824
40455,52841
40448,52855
40448,52861
40454,52861
40445,52869
40469,52887
40453,52901
40455,52896
40469,52919
40466,52919
40459,52920
40459,52949
40483,52948
40468,52951
40492,52956
